# OpenSignals Text File Format
# {"00:07:80:3B:46:61": {"sensor": ["EMG"], "device name": "00:07:80:3B:46:61", "column": ["nSeq", "DI", "PORT3_CHN1"], "sync interval": 2, "time": "10:28:51.69", "comments": "", "device connection": "BTH00:07:80:3B:46:61", "channels": [3], "date": "2017-1-23", "mode": 0, "digital IO": [0, 1], "firmware version": 772, "device": "channeller", "position": 0, "sampling rate": 1000, "label": ["PORT3_CHN1"], "resolution": [16], "special": [{"SpO2": [80, 40, 5, 4, 5, 5]}]}}
# EndOfHeader
0	0	32718	
1	0	32784	
2	0	32880	
3	0	32868	
4	0	32846	
5	0	32792	
6	0	32714	
7	0	32774	
8	0	32841	
9	0	32816	
10	0	32892	
11	0	32880	
12	0	32904	
13	0	32888	
14	0	32805	
15	0	32770	
16	0	32864	
17	0	32864	
18	0	32672	
19	0	32680	
20	0	32768	
21	0	32720	
22	0	32818	
23	0	32836	
24	0	32903	
25	0	32987	
26	0	32968	
27	0	32632	
28	0	32646	
29	0	32885	
30	0	32866	
31	0	32716	
32	0	32716	
33	0	32884	
34	0	32816	
35	0	32735	
36	0	32732	
37	0	32682	
38	0	32740	
39	0	32766	
40	0	32816	
41	0	32850	
42	0	32816	
43	0	32736	
44	0	32768	
45	0	32826	
46	0	32824	
47	0	32840	
48	0	33162	
49	0	32689	
50	0	32468	
51	0	32576	
52	0	32644	
53	0	32784	
54	0	32754	
55	0	32700	
56	0	32746	
57	0	32744	
58	0	32878	
59	0	32896	
60	0	32506	
61	0	32626	
62	0	32746	
63	0	32808	
64	0	32808	
65	0	32774	
66	0	32988	
67	0	32904	
68	0	32752	
69	0	32784	
70	0	32864	
71	0	32923	
72	0	32916	
73	0	32850	
74	0	32784	
75	0	32744	
76	0	32775	
77	0	32845	
78	0	32825	
79	0	32824	
80	0	32846	
81	0	32880	
82	0	32856	
83	0	32864	
84	0	32836	
85	0	32832	
86	0	32834	
87	0	32916	
88	0	32897	
89	0	32892	
90	0	32812	
91	0	32869	
92	0	32850	
93	0	33105	
94	0	33120	
95	0	32445	
96	0	32594	
97	0	32738	
98	0	32828	
99	0	32844	
100	0	32889	
101	0	32824	
102	0	32696	
103	0	32804	
104	0	33586	
105	0	32640	
106	0	32340	
107	0	32694	
108	0	32762	
109	0	32916	
110	0	32908	
111	0	32866	
112	0	32798	
113	0	32856	
114	0	32868	
115	0	33221	
116	0	33272	
117	0	32676	
118	0	31988	
119	0	32650	
120	0	32829	
121	0	32848	
122	0	32890	
123	0	32775	
124	0	32532	
125	0	32872	
126	0	32971	
127	0	32962	
128	0	32884	
129	0	32644	
130	0	32712	
131	0	32920	
132	0	32902	
133	0	33040	
134	0	32864	
135	0	32528	
136	0	32677	
137	0	32794	
138	0	32894	
139	0	32915	
140	0	32764	
141	0	32833	
142	0	32775	
143	0	32792	
144	0	32775	
145	0	32824	
146	0	32775	
147	0	32808	
148	0	32788	
149	0	32775	
150	0	32800	
151	0	32872	
152	0	33012	
153	0	32754	
154	0	32746	
155	0	32800	
156	0	32912	
157	0	32838	
158	0	32696	
159	0	32860	
160	0	32876	
161	0	32758	
162	0	32614	
163	0	32926	
164	0	32856	
165	0	32775	
166	0	32588	
167	0	32690	
168	0	32885	
169	0	32920	
170	0	32770	
171	0	32552	
172	0	32755	
173	0	32856	
174	0	32844	
175	0	32846	
176	0	32820	
177	0	32888	
178	0	33066	
179	0	32733	
180	0	32996	
181	0	32940	
182	0	32578	
183	0	32712	
184	0	32740	
185	0	32706	
186	0	32763	
187	0	32816	
188	0	32840	
189	0	32804	
190	0	32812	
191	0	32852	
192	0	32829	
193	0	32846	
194	0	32828	
195	0	32837	
196	0	32912	
197	0	32676	
198	0	32746	
199	0	32824	
200	0	32864	
201	0	32790	
202	0	32994	
203	0	33096	
204	0	32937	
205	0	32520	
206	0	32500	
207	0	32862	
208	0	32676	
209	0	32620	
210	0	32824	
211	0	32868	
212	0	32752	
213	0	32800	
214	0	32856	
215	0	32905	
216	0	32752	
217	0	32770	
218	0	32808	
219	0	32856	
220	0	32824	
221	0	32838	
222	0	32843	
223	0	32824	
224	0	32829	
225	0	32759	
226	0	32752	
227	0	32741	
228	0	32752	
229	0	32768	
230	0	32818	
231	0	32839	
232	0	32826	
233	0	32816	
234	0	32868	
235	0	32836	
236	0	32832	
237	0	32824	
238	0	32796	
239	0	32768	
240	0	32738	
241	0	32792	
242	0	32860	
243	0	32792	
244	0	33082	
245	0	32768	
246	0	32802	
247	0	33060	
248	0	32980	
249	0	32328	
250	0	32642	
251	0	32832	
252	0	32736	
253	0	32772	
254	0	32732	
255	0	32808	
256	0	32829	
257	0	32838	
258	0	32792	
259	0	32756	
260	0	32774	
261	0	32810	
262	0	32843	
263	0	32796	
264	0	32730	
265	0	32740	
266	0	32812	
267	0	32840	
268	0	32804	
269	0	32813	
270	0	32848	
271	0	32837	
272	0	32792	
273	0	32812	
274	0	32844	
275	0	32867	
276	0	32958	
277	0	32672	
278	0	32811	
279	0	32704	
280	0	32864	
281	0	32890	
282	0	32858	
283	0	32908	
284	0	33033	
285	0	32362	
286	0	32388	
287	0	32744	
288	0	32896	
289	0	33124	
290	0	32980	
291	0	32477	
292	0	32841	
293	0	32866	
294	0	32860	
295	0	32804	
296	0	32775	
297	0	32756	
298	0	32839	
299	0	32967	
300	0	32905	
301	0	32656	
302	0	32702	
303	0	32685	
304	0	32772	
305	0	32833	
306	0	32836	
307	0	32816	
308	0	32918	
309	0	32880	
310	0	32730	
311	0	32706	
312	0	32872	
313	0	32772	
314	0	32869	
315	0	32768	
316	0	32610	
317	0	32722	
318	0	33032	
319	0	32956	
320	0	32923	
321	0	32520	
322	0	32504	
323	0	32688	
324	0	32674	
325	0	32788	
326	0	32834	
327	0	32846	
328	0	32894	
329	0	32914	
330	0	32841	
331	0	32916	
332	0	32844	
333	0	32808	
334	0	32784	
335	0	32852	
336	0	32826	
337	0	32800	
338	0	32893	
339	0	32841	
340	0	32750	
341	0	32840	
342	0	32792	
343	0	32775	
344	0	32852	
345	0	32860	
346	0	32832	
347	0	32850	
348	0	32824	
349	0	32906	
350	0	32826	
351	0	32754	
352	0	32897	
353	0	32900	
354	0	32793	
355	0	32660	
356	0	32656	
357	0	32730	
358	0	32738	
359	0	32928	
360	0	32880	
361	0	32872	
362	0	32808	
363	0	32755	
364	0	32870	
365	0	32848	
366	0	32748	
367	0	32756	
368	0	32832	
369	0	32704	
370	0	32710	
371	0	32774	
372	0	32796	
373	0	32836	
374	0	32858	
375	0	32761	
376	0	32832	
377	0	32730	
378	0	32878	
379	0	33353	
380	0	32840	
381	0	32768	
382	0	32404	
383	0	32816	
384	0	32695	
385	0	32748	
386	0	32752	
387	0	32894	
388	0	32930	
389	0	32892	
390	0	32756	
391	0	32642	
392	0	32732	
393	0	32897	
394	0	32888	
395	0	32906	
396	0	32680	
397	0	32732	
398	0	32841	
399	0	32878	
400	0	32772	
401	0	32768	
402	0	32772	
403	0	32864	
404	0	32748	
405	0	32696	
406	0	32850	
407	0	32800	
408	0	32720	
409	0	32903	
410	0	32919	
411	0	32857	
412	0	32744	
413	0	32654	
414	0	32872	
415	0	33546	
416	0	32775	
417	0	32176	
418	0	32732	
419	0	32922	
420	0	32568	
421	0	32624	
422	0	32762	
423	0	32848	
424	0	32848	
425	0	32820	
426	0	32842	
427	0	32873	
428	0	32817	
429	0	32876	
430	0	32962	
431	0	32792	
432	0	32792	
433	0	32876	
434	0	32773	
435	0	32672	
436	0	32640	
437	0	32768	
438	0	32726	
439	0	32902	
440	0	32929	
441	0	32952	
442	0	32972	
443	0	32760	
444	0	32610	
445	0	32744	
446	0	32644	
447	0	32794	
448	0	32900	
449	0	32775	
450	0	32792	
451	0	32887	
452	0	32877	
453	0	32985	
454	0	32572	
455	0	32756	
456	0	32712	
457	0	32674	
458	0	32764	
459	0	32938	
460	0	32872	
461	0	32833	
462	0	32688	
463	0	32736	
464	0	32792	
465	0	32809	
466	0	32829	
467	0	32824	
468	0	32946	
469	0	33112	
470	0	32532	
471	0	32688	
472	0	32885	
473	0	32774	
474	0	32775	
475	0	32780	
476	0	32813	
477	0	32885	
478	0	33030	
479	0	32692	
480	0	32688	
481	0	32784	
482	0	32825	
483	0	32733	
484	0	32808	
485	0	32829	
486	0	32846	
487	0	32774	
488	0	32730	
489	0	32928	
490	0	32904	
491	0	32844	
492	0	32775	
493	0	32972	
494	0	33008	
495	0	32768	
496	0	32680	
497	0	32688	
498	0	32752	
499	0	32762	
500	0	32736	
501	0	32837	
502	0	32842	
503	0	32772	
504	0	32733	
505	0	32808	
506	0	32808	
507	0	32820	
508	0	32834	
509	0	32744	
510	0	32734	
511	0	32833	
512	0	33060	
513	0	32916	
514	0	32868	
515	0	32844	
516	0	32729	
517	0	32729	
518	0	32797	
519	0	32860	
520	0	32792	
521	0	32800	
522	0	32752	
523	0	32738	
524	0	32770	
525	0	32715	
526	0	32861	
527	0	32842	
528	0	32936	
529	0	33200	
530	0	32725	
531	0	32516	
532	0	32592	
533	0	32804	
534	0	33246	
535	0	32930	
536	0	32419	
537	0	32544	
538	0	32890	
539	0	32940	
540	0	32738	
541	0	32556	
542	0	32706	
543	0	32797	
544	0	32818	
545	0	32710	
546	0	32890	
547	0	32896	
548	0	32882	
549	0	32840	
550	0	32836	
551	0	33006	
552	0	32712	
553	0	32772	
554	0	32850	
555	0	33097	
556	0	32622	
557	0	32621	
558	0	32674	
559	0	32853	
560	0	32704	
561	0	32838	
562	0	32856	
563	0	32817	
564	0	32902	
565	0	32838	
566	0	32804	
567	0	32796	
568	0	32810	
569	0	32804	
570	0	32916	
571	0	32764	
572	0	32861	
573	0	32864	
574	0	32604	
575	0	32930	
576	0	32784	
577	0	32710	
578	0	32694	
579	0	32776	
580	0	32832	
581	0	32844	
582	0	33032	
583	0	32773	
584	0	32801	
585	0	32884	
586	0	32841	
587	0	32626	
588	0	32648	
589	0	32768	
590	0	32848	
591	0	32889	
592	0	32853	
593	0	32793	
594	0	32786	
595	0	32775	
596	0	32844	
597	0	32784	
598	0	32755	
599	0	32988	
600	0	32832	
601	0	32760	
602	0	32688	
603	0	32784	
604	0	32808	
605	0	32736	
606	0	32804	
607	0	32888	
608	0	32774	
609	0	32774	
610	0	32934	
611	0	32912	
612	0	32706	
613	0	32732	
614	0	32746	
615	0	32756	
616	0	32840	
617	0	32768	
618	0	32776	
619	0	32844	
620	0	32678	
621	0	32888	
622	0	32784	
623	0	32833	
624	0	32858	
625	0	32728	
626	0	32832	
627	0	32864	
628	0	32752	
629	0	32784	
630	0	32836	
631	0	32773	
632	0	32824	
633	0	32968	
634	0	32704	
635	0	32706	
636	0	32835	
637	0	32824	
638	0	32721	
639	0	33068	
640	0	33410	
641	0	32584	
642	0	32272	
643	0	32786	
644	0	32964	
645	0	32586	
646	0	33024	
647	0	32434	
648	0	32554	
649	0	32808	
650	0	32880	
651	0	32839	
652	0	32870	
653	0	33039	
654	0	32704	
655	0	32760	
656	0	32804	
657	0	32819	
658	0	32920	
659	0	32856	
660	0	32947	
661	0	33057	
662	0	32808	
663	0	32726	
664	0	32603	
665	0	32562	
666	0	32616	
667	0	32944	
668	0	33049	
669	0	32971	
670	0	32968	
671	0	32592	
672	0	32768	
673	0	32739	
674	0	32774	
675	0	32802	
676	0	32930	
677	0	32768	
678	0	32774	
679	0	32792	
680	0	32766	
681	0	32775	
682	0	32856	
683	0	32916	
684	0	32834	
685	0	32714	
686	0	32840	
687	0	32872	
688	0	32854	
689	0	32876	
690	0	32848	
691	0	32774	
692	0	32862	
693	0	32874	
694	0	32850	
695	0	32668	
696	0	32868	
697	0	32854	
698	0	32927	
699	0	32845	
700	0	32635	
701	0	32441	
702	0	32472	
703	0	32740	
704	0	32848	
705	0	32808	
706	0	32900	
707	0	32900	
708	0	32802	
709	0	32924	
710	0	32888	
711	0	32744	
712	0	32808	
713	0	32873	
714	0	32921	
715	0	32788	
716	0	32816	
717	0	32788	
718	0	32788	
719	0	32756	
720	0	32827	
721	0	32880	
722	0	32816	
723	0	32796	
724	0	32758	
725	0	32784	
726	0	32680	
727	0	32890	
728	0	32960	
729	0	32850	
730	0	32704	
731	0	32666	
732	0	33180	
733	0	32542	
734	0	32698	
735	0	32775	
736	0	32794	
737	0	32812	
738	0	32712	
739	0	32792	
740	0	32792	
741	0	32872	
742	0	32896	
743	0	32808	
744	0	32684	
745	0	32952	
746	0	32948	
747	0	32952	
748	0	33132	
749	0	32440	
750	0	32600	
751	0	32784	
752	0	32892	
753	0	32885	
754	0	32784	
755	0	32744	
756	0	32654	
757	0	32763	
758	0	32864	
759	0	33144	
760	0	32583	
761	0	32672	
762	0	32804	
763	0	32922	
764	0	32812	
765	0	32700	
766	0	32808	
767	0	32775	
768	0	32828	
769	0	32800	
770	0	32952	
771	0	33044	
772	0	32634	
773	0	32840	
774	0	32832	
775	0	32993	
776	0	32887	
777	0	32492	
778	0	32588	
779	0	32672	
780	0	32792	
781	0	32826	
782	0	32952	
783	0	32972	
784	0	32810	
785	0	32736	
786	0	32768	
787	0	32844	
788	0	32790	
789	0	32700	
790	0	32636	
791	0	32864	
792	0	32850	
793	0	32908	
794	0	32740	
795	0	33002	
796	0	32870	
797	0	32746	
798	0	32764	
799	0	32676	
800	0	32824	
801	0	32821	
802	0	32856	
803	0	32819	
804	0	32816	
805	0	32790	
806	0	32844	
807	0	32848	
808	0	32768	
809	0	32768	
810	0	32894	
811	0	32816	
812	0	32788	
813	0	32839	
814	0	32745	
815	0	32706	
816	0	32864	
817	0	32890	
818	0	32775	
819	0	32824	
820	0	32808	
821	0	32903	
822	0	32944	
823	0	32658	
824	0	32684	
825	0	32752	
826	0	32720	
827	0	32724	
828	0	32792	
829	0	32816	
830	0	32846	
831	0	32828	
832	0	32668	
833	0	32793	
834	0	32684	
835	0	32860	
836	0	32913	
837	0	32846	
838	0	32750	
839	0	32688	
840	0	32904	
841	0	32944	
842	0	32836	
843	0	32728	
844	0	32804	
845	0	32798	
846	0	32816	
847	0	32947	
848	0	32776	
849	0	32708	
850	0	32784	
851	0	32976	
852	0	32885	
853	0	32744	
854	0	32845	
855	0	32816	
856	0	32948	
857	0	33144	
858	0	32962	
859	0	32346	
860	0	32306	
861	0	32624	
862	0	33016	
863	0	32956	
864	0	32775	
865	0	32872	
866	0	32428	
867	0	32560	
868	0	32790	
869	0	32904	
870	0	32948	
871	0	32892	
872	0	32760	
873	0	32892	
874	0	32939	
875	0	32865	
876	0	32796	
877	0	32760	
878	0	32774	
879	0	32808	
880	0	32888	
881	0	32768	
882	0	32739	
883	0	32724	
884	0	32712	
885	0	32872	
886	0	33060	
887	0	33155	
888	0	32444	
889	0	32660	
890	0	32944	
891	0	32436	
892	0	32642	
893	0	32817	
894	0	32958	
895	0	32776	
896	0	33160	
897	0	33400	
898	0	33545	
899	0	33472	
900	0	33368	
901	0	33098	
902	0	33000	
903	0	32732	
904	0	32178	
905	0	31362	
906	0	31096	
907	0	31200	
908	0	31914	
909	0	32775	
910	0	33114	
911	0	33168	
912	0	33124	
913	0	33152	
914	0	33200	
915	0	33148	
916	0	32984	
917	0	32676	
918	0	32896	
919	0	32898	
920	0	32896	
921	0	32866	
922	0	33034	
923	0	32956	
924	0	32912	
925	0	32835	
926	0	32833	
927	0	32840	
928	0	32962	
929	0	33016	
930	0	33060	
931	0	32957	
932	0	32912	
933	0	32996	
934	0	33074	
935	0	32912	
936	0	32684	
937	0	32556	
938	0	32696	
939	0	32834	
940	0	33098	
941	0	32754	
942	0	32500	
943	0	32408	
944	0	32302	
945	0	32448	
946	0	32711	
947	0	32440	
948	0	32410	
949	0	32736	
950	0	32878	
951	0	32948	
952	0	32880	
953	0	32932	
954	0	32736	
955	0	32868	
956	0	33000	
957	0	33162	
958	0	33252	
959	0	33509	
960	0	33618	
961	0	32924	
962	0	32920	
963	0	32472	
964	0	32633	
965	0	33080	
966	0	33489	
967	0	33092	
968	0	32664	
969	0	33120	
970	0	33586	
971	0	33523	
972	0	32263	
973	0	30640	
974	0	30668	
975	0	32108	
976	0	32400	
977	0	32592	
978	0	32488	
979	0	32454	
980	0	32712	
981	0	33106	
982	0	32452	
983	0	32004	
984	0	32620	
985	0	32880	
986	0	33756	
987	0	34128	
988	0	33796	
989	0	33328	
990	0	33223	
991	0	33176	
992	0	32440	
993	0	32152	
994	0	31986	
995	0	32169	
996	0	32528	
997	0	33002	
998	0	33287	
999	0	33284	
1000	0	32634	
1001	0	32568	
1002	0	32740	
1003	0	32728	
1004	0	32946	
1005	0	33066	
1006	0	32998	
1007	0	33032	
1008	0	33056	
1009	0	32954	
1010	0	32944	
1011	0	32890	
1012	0	32784	
1013	0	32804	
1014	0	32880	
1015	0	32856	
1016	0	32932	
1017	0	32800	
1018	0	32929	
1019	0	32939	
1020	0	32756	
1021	0	32802	
1022	0	33084	
1023	0	32672	
1024	0	32514	
1025	0	32821	
1026	0	32694	
1027	0	32784	
1028	0	32760	
1029	0	32700	
1030	0	32762	
1031	0	32785	
1032	0	32772	
1033	0	32792	
1034	0	32723	
1035	0	32696	
1036	0	32826	
1037	0	32772	
1038	0	32804	
1039	0	32741	
1040	0	32792	
1041	0	32792	
1042	0	32612	
1043	0	33016	
1044	0	32868	
1045	0	32892	
1046	0	32894	
1047	0	32916	
1048	0	32827	
1049	0	32638	
1050	0	32638	
1051	0	32616	
1052	0	32792	
1053	0	32736	
1054	0	32732	
1055	0	32969	
1056	0	32816	
1057	0	32880	
1058	0	32720	
1059	0	32796	
1060	0	32932	
1061	0	32702	
1062	0	32716	
1063	0	32794	
1064	0	32784	
1065	0	32748	
1066	0	32889	
1067	0	32840	
1068	0	32730	
1069	0	33002	
1070	0	33120	
1071	0	33148	
1072	0	33070	
1073	0	32924	
1074	0	32910	
1075	0	32904	
1076	0	32742	
1077	0	32610	
1078	0	32364	
1079	0	32314	
1080	0	33164	
1081	0	33544	
1082	0	33078	
1083	0	32832	
1084	0	32796	
1085	0	32048	
1086	0	31510	
1087	0	31751	
1088	0	32206	
1089	0	33006	
1090	0	33234	
1091	0	33380	
1092	0	33233	
1093	0	32706	
1094	0	32281	
1095	0	32485	
1096	0	33064	
1097	0	33272	
1098	0	33188	
1099	0	33146	
1100	0	32898	
1101	0	32952	
1102	0	32960	
1103	0	32640	
1104	0	32210	
1105	0	32492	
1106	0	32932	
1107	0	33048	
1108	0	32960	
1109	0	32870	
1110	0	32896	
1111	0	32846	
1112	0	32786	
1113	0	32656	
1114	0	32684	
1115	0	32811	
1116	0	32902	
1117	0	33128	
1118	0	32848	
1119	0	32635	
1120	0	32775	
1121	0	32864	
1122	0	32869	
1123	0	32841	
1124	0	32572	
1125	0	32668	
1126	0	32857	
1127	0	32740	
1128	0	32885	
1129	0	32908	
1130	0	32788	
1131	0	32716	
1132	0	32760	
1133	0	32976	
1134	0	32764	
1135	0	32738	
1136	0	32712	
1137	0	32672	
1138	0	32796	
1139	0	32864	
1140	0	33052	
1141	0	32802	
1142	0	33092	
1143	0	33112	
1144	0	32921	
1145	0	32816	
1146	0	32864	
1147	0	32678	
1148	0	32468	
1149	0	32674	
1150	0	32864	
1151	0	32838	
1152	0	32870	
1153	0	32768	
1154	0	32952	
1155	0	32708	
1156	0	32644	
1157	0	32739	
1158	0	32754	
1159	0	32706	
1160	0	32744	
1161	0	32592	
1162	0	32608	
1163	0	32914	
1164	0	32843	
1165	0	32792	
1166	0	32688	
1167	0	32800	
1168	0	32904	
1169	0	32989	
1170	0	32988	
1171	0	33060	
1172	0	33180	
1173	0	33030	
1174	0	32800	
1175	0	32278	
1176	0	32369	
1177	0	32513	
1178	0	32644	
1179	0	32850	
1180	0	32892	
1181	0	32780	
1182	0	32844	
1183	0	32942	
1184	0	32960	
1185	0	32813	
1186	0	32896	
1187	0	33152	
1188	0	33192	
1189	0	33140	
1190	0	33064	
1191	0	32866	
1192	0	32775	
1193	0	32456	
1194	0	32473	
1195	0	32304	
1196	0	32072	
1197	0	32450	
1198	0	33026	
1199	0	32868	
1200	0	32682	
1201	0	32985	
1202	0	32972	
1203	0	32864	
1204	0	32504	
1205	0	32704	
1206	0	33084	
1207	0	32950	
1208	0	32844	
1209	0	32988	
1210	0	33082	
1211	0	32920	
1212	0	32994	
1213	0	33360	
1214	0	33082	
1215	0	33008	
1216	0	33193	
1217	0	33074	
1218	0	33024	
1219	0	32908	
1220	0	32477	
1221	0	32360	
1222	0	32450	
1223	0	31864	
1224	0	30841	
1225	0	31744	
1226	0	32775	
1227	0	32996	
1228	0	32816	
1229	0	33100	
1230	0	33220	
1231	0	33051	
1232	0	32968	
1233	0	32985	
1234	0	33148	
1235	0	33064	
1236	0	32948	
1237	0	32792	
1238	0	33170	
1239	0	33152	
1240	0	33064	
1241	0	32862	
1242	0	32774	
1243	0	32964	
1244	0	33065	
1245	0	32964	
1246	0	32848	
1247	0	32114	
1248	0	32588	
1249	0	32808	
1250	0	32988	
1251	0	32838	
1252	0	32600	
1253	0	32216	
1254	0	32232	
1255	0	32650	
1256	0	32744	
1257	0	32792	
1258	0	32952	
1259	0	32882	
1260	0	33072	
1261	0	33250	
1262	0	33110	
1263	0	32996	
1264	0	33154	
1265	0	33005	
1266	0	32890	
1267	0	32684	
1268	0	32796	
1269	0	33078	
1270	0	33490	
1271	0	33254	
1272	0	32336	
1273	0	32012	
1274	0	31965	
1275	0	32528	
1276	0	32084	
1277	0	32408	
1278	0	32651	
1279	0	32120	
1280	0	32112	
1281	0	32586	
1282	0	32775	
1283	0	33124	
1284	0	33776	
1285	0	33799	
1286	0	33172	
1287	0	33408	
1288	0	33376	
1289	0	32600	
1290	0	32082	
1291	0	32866	
1292	0	33042	
1293	0	32865	
1294	0	32739	
1295	0	32768	
1296	0	32838	
1297	0	32740	
1298	0	32712	
1299	0	32903	
1300	0	33114	
1301	0	32834	
1302	0	32934	
1303	0	32894	
1304	0	32892	
1305	0	32800	
1306	0	32752	
1307	0	32784	
1308	0	32937	
1309	0	33334	
1310	0	33432	
1311	0	32860	
1312	0	32232	
1313	0	32328	
1314	0	32400	
1315	0	32538	
1316	0	32252	
1317	0	32021	
1318	0	32092	
1319	0	32590	
1320	0	32580	
1321	0	32624	
1322	0	32800	
1323	0	33274	
1324	0	33152	
1325	0	33124	
1326	0	33332	
1327	0	33380	
1328	0	33024	
1329	0	32736	
1330	0	32612	
1331	0	32500	
1332	0	32617	
1333	0	33744	
1334	0	33924	
1335	0	33928	
1336	0	33636	
1337	0	33272	
1338	0	33162	
1339	0	32632	
1340	0	32681	
1341	0	31956	
1342	0	30680	
1343	0	30360	
1344	0	31793	
1345	0	32790	
1346	0	32720	
1347	0	32952	
1348	0	33013	
1349	0	33112	
1350	0	33050	
1351	0	33268	
1352	0	33038	
1353	0	32698	
1354	0	32876	
1355	0	33028	
1356	0	33516	
1357	0	34122	
1358	0	33890	
1359	0	32562	
1360	0	32698	
1361	0	32846	
1362	0	32944	
1363	0	33024	
1364	0	33192	
1365	0	33092	
1366	0	32344	
1367	0	31904	
1368	0	31976	
1369	0	32031	
1370	0	32730	
1371	0	32796	
1372	0	31988	
1373	0	32282	
1374	0	32600	
1375	0	32752	
1376	0	33211	
1377	0	32864	
1378	0	32868	
1379	0	33112	
1380	0	32921	
1381	0	32828	
1382	0	33174	
1383	0	33162	
1384	0	32400	
1385	0	33064	
1386	0	33188	
1387	0	32726	
1388	0	32885	
1389	0	33088	
1390	0	32720	
1391	0	32582	
1392	0	33140	
1393	0	32841	
1394	0	33122	
1395	0	33192	
1396	0	32532	
1397	0	32604	
1398	0	32794	
1399	0	32773	
1400	0	33027	
1401	0	33028	
1402	0	32872	
1403	0	33456	
1404	0	33430	
1405	0	33093	
1406	0	32558	
1407	0	32135	
1408	0	32096	
1409	0	31449	
1410	0	31780	
1411	0	32626	
1412	0	33166	
1413	0	32498	
1414	0	32874	
1415	0	32808	
1416	0	32332	
1417	0	32872	
1418	0	33600	
1419	0	33600	
1420	0	33132	
1421	0	32774	
1422	0	32700	
1423	0	32988	
1424	0	33480	
1425	0	32402	
1426	0	31944	
1427	0	32564	
1428	0	32329	
1429	0	32968	
1430	0	33178	
1431	0	33128	
1432	0	32508	
1433	0	32272	
1434	0	32552	
1435	0	33098	
1436	0	33450	
1437	0	32892	
1438	0	32992	
1439	0	32740	
1440	0	32392	
1441	0	32498	
1442	0	32482	
1443	0	32780	
1444	0	33120	
1445	0	33240	
1446	0	32928	
1447	0	32746	
1448	0	32898	
1449	0	32925	
1450	0	33284	
1451	0	33664	
1452	0	33590	
1453	0	33060	
1454	0	32348	
1455	0	31958	
1456	0	32399	
1457	0	32458	
1458	0	32468	
1459	0	32564	
1460	0	32873	
1461	0	32764	
1462	0	32612	
1463	0	33068	
1464	0	32930	
1465	0	33096	
1466	0	32866	
1467	0	32686	
1468	0	32684	
1469	0	32880	
1470	0	32948	
1471	0	32828	
1472	0	32912	
1473	0	33128	
1474	0	32904	
1475	0	32962	
1476	0	33331	
1477	0	32892	
1478	0	33472	
1479	0	34612	
1480	0	34232	
1481	0	32966	
1482	0	33338	
1483	0	33923	
1484	0	33032	
1485	0	30280	
1486	0	28828	
1487	0	29393	
1488	0	30876	
1489	0	31427	
1490	0	31840	
1491	0	33284	
1492	0	33256	
1493	0	34246	
1494	0	34290	
1495	0	34072	
1496	0	34802	
1497	0	34592	
1498	0	33872	
1499	0	33384	
1500	0	33602	
1501	0	33436	
1502	0	33245	
1503	0	31546	
1504	0	29213	
1505	0	30701	
1506	0	31994	
1507	0	32234	
1508	0	32386	
1509	0	32206	
1510	0	32648	
1511	0	32240	
1512	0	32894	
1513	0	33544	
1514	0	33568	
1515	0	33118	
1516	0	32752	
1517	0	32714	
1518	0	32931	
1519	0	33616	
1520	0	33714	
1521	0	33668	
1522	0	33508	
1523	0	33122	
1524	0	33156	
1525	0	33200	
1526	0	32788	
1527	0	32596	
1528	0	33108	
1529	0	32496	
1530	0	32212	
1531	0	32829	
1532	0	32308	
1533	0	32615	
1534	0	33452	
1535	0	33440	
1536	0	33044	
1537	0	32706	
1538	0	32000	
1539	0	31414	
1540	0	32310	
1541	0	33104	
1542	0	33120	
1543	0	33287	
1544	0	33512	
1545	0	33364	
1546	0	33052	
1547	0	31751	
1548	0	31952	
1549	0	32966	
1550	0	33000	
1551	0	33868	
1552	0	33796	
1553	0	33732	
1554	0	33566	
1555	0	33676	
1556	0	32652	
1557	0	31056	
1558	0	29661	
1559	0	30744	
1560	0	32836	
1561	0	33788	
1562	0	33475	
1563	0	33656	
1564	0	34192	
1565	0	33636	
1566	0	32528	
1567	0	30906	
1568	0	31648	
1569	0	32148	
1570	0	30922	
1571	0	32020	
1572	0	33636	
1573	0	33837	
1574	0	33832	
1575	0	33372	
1576	0	33118	
1577	0	33252	
1578	0	32788	
1579	0	33480	
1580	0	33796	
1581	0	34144	
1582	0	33904	
1583	0	32947	
1584	0	32884	
1585	0	32738	
1586	0	32013	
1587	0	31528	
1588	0	31751	
1589	0	30410	
1590	0	30628	
1591	0	32361	
1592	0	33506	
1593	0	33501	
1594	0	33580	
1595	0	33949	
1596	0	32680	
1597	0	31880	
1598	0	32336	
1599	0	32748	
1600	0	33512	
1601	0	32908	
1602	0	31945	
1603	0	32696	
1604	0	32796	
1605	0	32006	
1606	0	32262	
1607	0	33660	
1608	0	34782	
1609	0	34912	
1610	0	34273	
1611	0	33672	
1612	0	33024	
1613	0	33268	
1614	0	31580	
1615	0	31291	
1616	0	31764	
1617	0	32697	
1618	0	33320	
1619	0	32331	
1620	0	32224	
1621	0	31340	
1622	0	31456	
1623	0	32176	
1624	0	32424	
1625	0	33182	
1626	0	33394	
1627	0	33400	
1628	0	33336	
1629	0	33240	
1630	0	33397	
1631	0	33808	
1632	0	34026	
1633	0	32500	
1634	0	32330	
1635	0	32368	
1636	0	32464	
1637	0	33728	
1638	0	33826	
1639	0	33453	
1640	0	34024	
1641	0	33904	
1642	0	33912	
1643	0	33634	
1644	0	34226	
1645	0	34450	
1646	0	32844	
1647	0	30737	
1648	0	27570	
1649	0	28933	
1650	0	30168	
1651	0	30964	
1652	0	32010	
1653	0	32696	
1654	0	32840	
1655	0	33368	
1656	0	32432	
1657	0	32812	
1658	0	33196	
1659	0	33234	
1660	0	33544	
1661	0	34208	
1662	0	34330	
1663	0	34682	
1664	0	34964	
1665	0	37488	
1666	0	38840	
1667	0	38280	
1668	0	36935	
1669	0	33020	
1670	0	29362	
1671	0	27112	
1672	0	21376	
1673	0	21536	
1674	0	27804	
1675	0	31568	
1676	0	34120	
1677	0	35419	
1678	0	36346	
1679	0	35584	
1680	0	33865	
1681	0	34728	
1682	0	33248	
1683	0	29928	
1684	0	30688	
1685	0	32916	
1686	0	33956	
1687	0	34360	
1688	0	34594	
1689	0	34118	
1690	0	33924	
1691	0	34060	
1692	0	33738	
1693	0	32320	
1694	0	31052	
1695	0	31480	
1696	0	31668	
1697	0	32834	
1698	0	32646	
1699	0	32660	
1700	0	33626	
1701	0	33540	
1702	0	33845	
1703	0	32378	
1704	0	32122	
1705	0	32114	
1706	0	33216	
1707	0	33786	
1708	0	32694	
1709	0	32432	
1710	0	33384	
1711	0	33024	
1712	0	32710	
1713	0	32562	
1714	0	33376	
1715	0	33728	
1716	0	33840	
1717	0	33661	
1718	0	34362	
1719	0	34472	
1720	0	33116	
1721	0	32208	
1722	0	33001	
1723	0	34360	
1724	0	33024	
1725	0	32416	
1726	0	31360	
1727	0	30146	
1728	0	30672	
1729	0	30544	
1730	0	29538	
1731	0	29604	
1732	0	29988	
1733	0	31242	
1734	0	32775	
1735	0	34656	
1736	0	35233	
1737	0	35392	
1738	0	36368	
1739	0	36280	
1740	0	36640	
1741	0	36157	
1742	0	35470	
1743	0	35000	
1744	0	34688	
1745	0	35190	
1746	0	33432	
1747	0	30800	
1748	0	26504	
1749	0	24710	
1750	0	26156	
1751	0	28364	
1752	0	29204	
1753	0	30428	
1754	0	33136	
1755	0	32418	
1756	0	34948	
1757	0	35136	
1758	0	33610	
1759	0	33701	
1760	0	34116	
1761	0	33232	
1762	0	30894	
1763	0	31230	
1764	0	32808	
1765	0	34452	
1766	0	35765	
1767	0	35120	
1768	0	34360	
1769	0	34357	
1770	0	34784	
1771	0	32969	
1772	0	32625	
1773	0	31538	
1774	0	31962	
1775	0	32996	
1776	0	32632	
1777	0	32263	
1778	0	32904	
1779	0	33501	
1780	0	32972	
1781	0	32592	
1782	0	33048	
1783	0	33061	
1784	0	33044	
1785	0	33083	
1786	0	33068	
1787	0	33193	
1788	0	33040	
1789	0	32473	
1790	0	32656	
1791	0	33570	
1792	0	33329	
1793	0	32568	
1794	0	33122	
1795	0	32040	
1796	0	33028	
1797	0	33100	
1798	0	33018	
1799	0	33064	
1800	0	33420	
1801	0	34100	
1802	0	33908	
1803	0	33162	
1804	0	30546	
1805	0	32002	
1806	0	32040	
1807	0	33413	
1808	0	33444	
1809	0	31634	
1810	0	30522	
1811	0	30066	
1812	0	28829	
1813	0	28828	
1814	0	32188	
1815	0	33922	
1816	0	35640	
1817	0	36831	
1818	0	36468	
1819	0	35166	
1820	0	35248	
1821	0	33852	
1822	0	32456	
1823	0	32666	
1824	0	32484	
1825	0	32504	
1826	0	30856	
1827	0	30081	
1828	0	29024	
1829	0	29912	
1830	0	30880	
1831	0	31362	
1832	0	32956	
1833	0	32497	
1834	0	31776	
1835	0	33096	
1836	0	33772	
1837	0	34064	
1838	0	34160	
1839	0	33956	
1840	0	33902	
1841	0	33652	
1842	0	33424	
1843	0	32492	
1844	0	33600	
1845	0	34914	
1846	0	33920	
1847	0	33512	
1848	0	33673	
1849	0	33962	
1850	0	33501	
1851	0	35296	
1852	0	34112	
1853	0	32480	
1854	0	31194	
1855	0	31050	
1856	0	28792	
1857	0	28440	
1858	0	29688	
1859	0	33244	
1860	0	34280	
1861	0	33872	
1862	0	34744	
1863	0	34299	
1864	0	32680	
1865	0	32568	
1866	0	33728	
1867	0	33240	
1868	0	34386	
1869	0	34234	
1870	0	34528	
1871	0	34704	
1872	0	31724	
1873	0	32732	
1874	0	32242	
1875	0	31308	
1876	0	31965	
1877	0	30144	
1878	0	31166	
1879	0	32037	
1880	0	31018	
1881	0	32846	
1882	0	32042	
1883	0	31668	
1884	0	33370	
1885	0	34156	
1886	0	33344	
1887	0	34416	
1888	0	34848	
1889	0	34490	
1890	0	33052	
1891	0	32148	
1892	0	34052	
1893	0	34888	
1894	0	33144	
1895	0	31448	
1896	0	33176	
1897	0	35688	
1898	0	37024	
1899	0	35609	
1900	0	31044	
1901	0	27542	
1902	0	28144	
1903	0	24328	
1904	0	20728	
1905	0	27664	
1906	0	34360	
1907	0	37468	
1908	0	37032	
1909	0	36266	
1910	0	35598	
1911	0	32336	
1912	0	29724	
1913	0	32648	
1914	0	34722	
1915	0	35370	
1916	0	34088	
1917	0	34064	
1918	0	33988	
1919	0	33456	
1920	0	34600	
1921	0	35034	
1922	0	35180	
1923	0	36154	
1924	0	36385	
1925	0	35346	
1926	0	31944	
1927	0	30288	
1928	0	29106	
1929	0	26349	
1930	0	25163	
1931	0	27312	
1932	0	31553	
1933	0	34912	
1934	0	35644	
1935	0	34044	
1936	0	32889	
1937	0	33768	
1938	0	34544	
1939	0	34288	
1940	0	33508	
1941	0	33252	
1942	0	33297	
1943	0	33360	
1944	0	33200	
1945	0	33792	
1946	0	34922	
1947	0	33850	
1948	0	33536	
1949	0	34496	
1950	0	33690	
1951	0	31779	
1952	0	31464	
1953	0	31781	
1954	0	30804	
1955	0	31876	
1956	0	31168	
1957	0	30398	
1958	0	29840	
1959	0	31522	
1960	0	33984	
1961	0	33812	
1962	0	33608	
1963	0	34364	
1964	0	34372	
1965	0	34020	
1966	0	33504	
1967	0	31332	
1968	0	31472	
1969	0	32736	
1970	0	32996	
1971	0	33077	
1972	0	31940	
1973	0	32236	
1974	0	33241	
1975	0	33884	
1976	0	32936	
1977	0	34311	
1978	0	34392	
1979	0	35970	
1980	0	37985	
1981	0	39192	
1982	0	38494	
1983	0	36304	
1984	0	35360	
1985	0	29460	
1986	0	23284	
1987	0	19976	
1988	0	18821	
1989	0	25608	
1990	0	31402	
1991	0	34492	
1992	0	35840	
1993	0	34024	
1994	0	33804	
1995	0	34676	
1996	0	36122	
1997	0	34472	
1998	0	31572	
1999	0	29900	
2000	0	31440	
2001	0	33865	
2002	0	33674	
2003	0	34840	
2004	0	35664	
2005	0	37046	
2006	0	36640	
2007	0	38004	
2008	0	36554	
2009	0	34235	
2010	0	30564	
2011	0	23960	
2012	0	27944	
2013	0	33084	
2014	0	32642	
2015	0	34104	
2016	0	33508	
2017	0	32812	
2018	0	30456	
2019	0	29688	
2020	0	32816	
2021	0	35808	
2022	0	35710	
2023	0	33422	
2024	0	32840	
2025	0	30792	
2026	0	30188	
2027	0	32500	
2028	0	32022	
2029	0	32452	
2030	0	33181	
2031	0	33148	
2032	0	33878	
2033	0	33320	
2034	0	33124	
2035	0	33816	
2036	0	33687	
2037	0	33958	
2038	0	33701	
2039	0	33110	
2040	0	32612	
2041	0	32247	
2042	0	33372	
2043	0	33970	
2044	0	36516	
2045	0	35026	
2046	0	34336	
2047	0	31960	
2048	0	31028	
2049	0	30770	
2050	0	29804	
2051	0	30172	
2052	0	31452	
2053	0	31802	
2054	0	30608	
2055	0	30727	
2056	0	34132	
2057	0	35081	
2058	0	33776	
2059	0	34044	
2060	0	33658	
2061	0	34393	
2062	0	36084	
2063	0	36121	
2064	0	37748	
2065	0	35486	
2066	0	33784	
2067	0	30342	
2068	0	24833	
2069	0	25395	
2070	0	26740	
2071	0	26076	
2072	0	29373	
2073	0	32730	
2074	0	34664	
2075	0	35048	
2076	0	35232	
2077	0	36208	
2078	0	36432	
2079	0	34280	
2080	0	33592	
2081	0	33176	
2082	0	28958	
2083	0	28730	
2084	0	32464	
2085	0	34217	
2086	0	33410	
2087	0	32991	
2088	0	33360	
2089	0	35200	
2090	0	35576	
2091	0	35160	
2092	0	35328	
2093	0	33922	
2094	0	34008	
2095	0	34344	
2096	0	34002	
2097	0	32826	
2098	0	30932	
2099	0	30082	
2100	0	30940	
2101	0	30852	
2102	0	31749	
2103	0	33058	
2104	0	32608	
2105	0	30052	
2106	0	31188	
2107	0	33096	
2108	0	33351	
2109	0	33680	
2110	0	35104	
2111	0	34043	
2112	0	31964	
2113	0	32466	
2114	0	33785	
2115	0	34368	
2116	0	33034	
2117	0	32736	
2118	0	34823	
2119	0	37596	
2120	0	36138	
2121	0	34823	
2122	0	34282	
2123	0	32824	
2124	0	27654	
2125	0	26736	
2126	0	28396	
2127	0	26816	
2128	0	27394	
2129	0	30764	
2130	0	35730	
2131	0	37136	
2132	0	38280	
2133	0	36444	
2134	0	31496	
2135	0	27588	
2136	0	28784	
2137	0	31180	
2138	0	32740	
2139	0	34504	
2140	0	36290	
2141	0	36423	
2142	0	34761	
2143	0	34648	
2144	0	35805	
2145	0	33705	
2146	0	30824	
2147	0	31312	
2148	0	31024	
2149	0	28884	
2150	0	28266	
2151	0	31952	
2152	0	34540	
2153	0	36104	
2154	0	36706	
2155	0	35846	
2156	0	33260	
2157	0	35424	
2158	0	36762	
2159	0	33404	
2160	0	30436	
2161	0	32392	
2162	0	30594	
2163	0	24922	
2164	0	22260	
2165	0	27604	
2166	0	30812	
2167	0	34430	
2168	0	34140	
2169	0	34660	
2170	0	34974	
2171	0	35250	
2172	0	34840	
2173	0	34716	
2174	0	34468	
2175	0	34324	
2176	0	34624	
2177	0	35568	
2178	0	35552	
2179	0	33528	
2180	0	32304	
2181	0	30920	
2182	0	30108	
2183	0	30057	
2184	0	31933	
2185	0	34272	
2186	0	33086	
2187	0	32420	
2188	0	32562	
2189	0	32740	
2190	0	34140	
2191	0	34554	
2192	0	35488	
2193	0	33864	
2194	0	33729	
2195	0	31824	
2196	0	31246	
2197	0	33570	
2198	0	32240	
2199	0	30168	
2200	0	32065	
2201	0	32836	
2202	0	32600	
2203	0	31700	
2204	0	33037	
2205	0	32306	
2206	0	33156	
2207	0	32456	
2208	0	31964	
2209	0	32594	
2210	0	33232	
2211	0	33497	
2212	0	34946	
2213	0	37000	
2214	0	37972	
2215	0	37930	
2216	0	37120	
2217	0	32476	
2218	0	26162	
2219	0	20796	
2220	0	25041	
2221	0	29904	
2222	0	30378	
2223	0	30548	
2224	0	31794	
2225	0	31395	
2226	0	32553	
2227	0	33149	
2228	0	34864	
2229	0	35964	
2230	0	37298	
2231	0	37938	
2232	0	36240	
2233	0	34976	
2234	0	33068	
2235	0	31238	
2236	0	30726	
2237	0	30608	
2238	0	32332	
2239	0	33642	
2240	0	34036	
2241	0	33052	
2242	0	32640	
2243	0	31888	
2244	0	32141	
2245	0	32784	
2246	0	33124	
2247	0	33228	
2248	0	34030	
2249	0	33926	
2250	0	33479	
2251	0	33492	
2252	0	32616	
2253	0	31624	
2254	0	33020	
2255	0	33204	
2256	0	31954	
2257	0	32904	
2258	0	32324	
2259	0	33931	
2260	0	34376	
2261	0	32404	
2262	0	31795	
2263	0	32135	
2264	0	32150	
2265	0	31249	
2266	0	31552	
2267	0	32248	
2268	0	32505	
2269	0	33136	
2270	0	33474	
2271	0	33184	
2272	0	33578	
2273	0	33640	
2274	0	33358	
2275	0	32990	
2276	0	32516	
2277	0	32458	
2278	0	32584	
2279	0	32484	
2280	0	32696	
2281	0	32566	
2282	0	32764	
2283	0	32178	
2284	0	33053	
2285	0	33894	
2286	0	33504	
2287	0	32868	
2288	0	32646	
2289	0	32692	
2290	0	33115	
2291	0	34211	
2292	0	35416	
2293	0	35864	
2294	0	35192	
2295	0	33072	
2296	0	32020	
2297	0	31588	
2298	0	30080	
2299	0	26680	
2300	0	24908	
2301	0	29241	
2302	0	33856	
2303	0	35476	
2304	0	35496	
2305	0	34652	
2306	0	33203	
2307	0	32530	
2308	0	30308	
2309	0	30720	
2310	0	31608	
2311	0	33275	
2312	0	34666	
2313	0	35132	
2314	0	34156	
2315	0	33188	
2316	0	32895	
2317	0	33106	
2318	0	34328	
2319	0	33966	
2320	0	34004	
2321	0	33628	
2322	0	33403	
2323	0	32628	
2324	0	32219	
2325	0	32109	
2326	0	32538	
2327	0	32128	
2328	0	33052	
2329	0	33456	
2330	0	32859	
2331	0	32418	
2332	0	32308	
2333	0	32612	
2334	0	32612	
2335	0	32527	
2336	0	32708	
2337	0	32920	
2338	0	33028	
2339	0	32536	
2340	0	32480	
2341	0	32944	
2342	0	32837	
2343	0	32834	
2344	0	33299	
2345	0	33736	
2346	0	33236	
2347	0	32416	
2348	0	31104	
2349	0	32722	
2350	0	32723	
2351	0	32486	
2352	0	32566	
2353	0	32775	
2354	0	33088	
2355	0	33070	
2356	0	32908	
2357	0	32760	
2358	0	32860	
2359	0	33218	
2360	0	32988	
2361	0	33020	
2362	0	32712	
2363	0	32910	
2364	0	32986	
2365	0	33130	
2366	0	32489	
2367	0	31584	
2368	0	32036	
2369	0	32320	
2370	0	32560	
2371	0	33088	
2372	0	33092	
2373	0	33285	
2374	0	33370	
2375	0	32839	
2376	0	32616	
2377	0	32652	
2378	0	32825	
2379	0	32906	
2380	0	33088	
2381	0	33110	
2382	0	32816	
2383	0	32728	
2384	0	32668	
2385	0	32704	
2386	0	33112	
2387	0	33170	
2388	0	32760	
2389	0	32716	
2390	0	32704	
2391	0	32864	
2392	0	32596	
2393	0	32569	
2394	0	33140	
2395	0	32838	
2396	0	32686	
2397	0	32930	
2398	0	33128	
2399	0	32904	
2400	0	32384	
2401	0	32760	
2402	0	32390	
2403	0	32774	
2404	0	32893	
2405	0	32576	
2406	0	32878	
2407	0	32976	
2408	0	33058	
2409	0	33346	
2410	0	33016	
2411	0	32793	
2412	0	32390	
2413	0	32540	
2414	0	32829	
2415	0	32808	
2416	0	32817	
2417	0	32828	
2418	0	33128	
2419	0	33776	
2420	0	32230	
2421	0	31968	
2422	0	32736	
2423	0	33074	
2424	0	33140	
2425	0	33282	
2426	0	33523	
2427	0	33154	
2428	0	31928	
2429	0	31146	
2430	0	31717	
2431	0	32094	
2432	0	32236	
2433	0	32652	
2434	0	32796	
2435	0	32928	
2436	0	33093	
2437	0	33148	
2438	0	33064	
2439	0	33072	
2440	0	33182	
2441	0	33170	
2442	0	33088	
2443	0	33074	
2444	0	33066	
2445	0	33064	
2446	0	32856	
2447	0	32912	
2448	0	33053	
2449	0	33038	
2450	0	33018	
2451	0	33144	
2452	0	32898	
2453	0	32811	
2454	0	32647	
2455	0	32882	
2456	0	33812	
2457	0	33648	
2458	0	33645	
2459	0	33196	
2460	0	32258	
2461	0	30884	
2462	0	30394	
2463	0	30476	
2464	0	31768	
2465	0	32640	
2466	0	33034	
2467	0	33200	
2468	0	33312	
2469	0	33160	
2470	0	33068	
2471	0	33042	
2472	0	33122	
2473	0	33202	
2474	0	33144	
2475	0	32892	
2476	0	32980	
2477	0	33112	
2478	0	33016	
2479	0	32944	
2480	0	32976	
2481	0	33100	
2482	0	32922	
2483	0	32618	
2484	0	32812	
2485	0	33136	
2486	0	32842	
2487	0	32391	
2488	0	32760	
2489	0	32870	
2490	0	32858	
2491	0	32814	
2492	0	32756	
2493	0	32644	
2494	0	32676	
2495	0	32780	
2496	0	32816	
2497	0	32895	
2498	0	32818	
2499	0	32944	
2500	0	33096	
2501	0	32568	
2502	0	32677	
2503	0	32940	
2504	0	32888	
2505	0	32820	
2506	0	32754	
2507	0	32956	
2508	0	32618	
2509	0	33040	
2510	0	32744	
2511	0	32730	
2512	0	32810	
2513	0	32606	
2514	0	32896	
2515	0	32520	
2516	0	32608	
2517	0	32754	
2518	0	32932	
2519	0	32868	
2520	0	32646	
2521	0	32618	
2522	0	32740	
2523	0	32850	
2524	0	32960	
2525	0	32812	
2526	0	32760	
2527	0	32790	
2528	0	32853	
2529	0	32850	
2530	0	32864	
2531	0	32844	
2532	0	32832	
2533	0	32861	
2534	0	32864	
2535	0	32824	
2536	0	32792	
2537	0	32752	
2538	0	32932	
2539	0	33049	
2540	0	32840	
2541	0	32622	
2542	0	32775	
2543	0	32496	
2544	0	32608	
2545	0	32861	
2546	0	32880	
2547	0	32984	
2548	0	32788	
2549	0	32796	
2550	0	32740	
2551	0	32701	
2552	0	32720	
2553	0	32749	
2554	0	32816	
2555	0	33056	
2556	0	32980	
2557	0	33002	
2558	0	32880	
2559	0	32784	
2560	0	32850	
2561	0	32622	
2562	0	32368	
2563	0	32504	
2564	0	32692	
2565	0	32724	
2566	0	32744	
2567	0	32829	
2568	0	32801	
2569	0	32760	
2570	0	32819	
2571	0	32989	
2572	0	32920	
2573	0	32891	
2574	0	32856	
2575	0	32848	
2576	0	33057	
2577	0	33147	
2578	0	32996	
2579	0	32608	
2580	0	32647	
2581	0	32702	
2582	0	32784	
2583	0	32884	
2584	0	32642	
2585	0	32760	
2586	0	32876	
2587	0	32774	
2588	0	32868	
2589	0	32784	
2590	0	32682	
2591	0	32752	
2592	0	32820	
2593	0	32852	
2594	0	33008	
2595	0	33084	
2596	0	32968	
2597	0	32876	
2598	0	32818	
2599	0	32754	
2600	0	32596	
2601	0	32632	
2602	0	32723	
2603	0	32672	
2604	0	32828	
2605	0	32644	
2606	0	32616	
2607	0	32568	
2608	0	32648	
2609	0	32810	
2610	0	32880	
2611	0	32942	
2612	0	32990	
2613	0	33080	
2614	0	33040	
2615	0	33120	
2616	0	32888	
2617	0	32756	
2618	0	32789	
2619	0	32832	
2620	0	32838	
2621	0	32656	
2622	0	32749	
2623	0	32722	
2624	0	32538	
2625	0	32760	
2626	0	32788	
2627	0	32744	
2628	0	32827	
2629	0	32760	
2630	0	32710	
2631	0	32784	
2632	0	33042	
2633	0	32832	
2634	0	32738	
2635	0	32938	
2636	0	33010	
2637	0	32674	
2638	0	32558	
2639	0	32432	
2640	0	32636	
2641	0	32844	
2642	0	32902	
2643	0	33071	
2644	0	32918	
2645	0	32688	
2646	0	32670	
2647	0	32944	
2648	0	32972	
2649	0	32796	
2650	0	32784	
2651	0	32910	
2652	0	32604	
2653	0	32750	
2654	0	32944	
2655	0	32544	
2656	0	32901	
2657	0	32854	
2658	0	32981	
2659	0	32952	
2660	0	32340	
2661	0	32486	
2662	0	32674	
2663	0	32896	
2664	0	32816	
2665	0	32996	
2666	0	32621	
2667	0	32940	
2668	0	32835	
2669	0	32404	
2670	0	32632	
2671	0	32857	
2672	0	32946	
2673	0	32924	
2674	0	32770	
2675	0	32996	
2676	0	32740	
2677	0	33010	
2678	0	32744	
2679	0	33140	
2680	0	33130	
2681	0	32744	
2682	0	32768	
2683	0	32714	
2684	0	32744	
2685	0	33052	
2686	0	32850	
2687	0	32816	
2688	0	32936	
2689	0	32841	
2690	0	32564	
2691	0	32605	
2692	0	32896	
2693	0	32844	
2694	0	32696	
2695	0	32580	
2696	0	32672	
2697	0	32796	
2698	0	32808	
2699	0	32692	
2700	0	32722	
2701	0	32605	
2702	0	32640	
2703	0	32996	
2704	0	32968	
2705	0	32927	
2706	0	32864	
2707	0	33080	
2708	0	33220	
2709	0	33082	
2710	0	32932	
2711	0	32760	
2712	0	32600	
2713	0	32692	
2714	0	32738	
2715	0	32945	
2716	0	33056	
2717	0	32770	
2718	0	32584	
2719	0	32836	
2720	0	32893	
2721	0	32652	
2722	0	32812	
2723	0	32690	
2724	0	32644	
2725	0	32768	
2726	0	32858	
2727	0	32861	
2728	0	32626	
2729	0	32652	
2730	0	32768	
2731	0	32780	
2732	0	32760	
2733	0	32748	
2734	0	32760	
2735	0	32788	
2736	0	32824	
2737	0	32964	
2738	0	32756	
2739	0	32707	
2740	0	32728	
2741	0	32796	
2742	0	32802	
2743	0	32774	
2744	0	32743	
2745	0	32752	
2746	0	32818	
2747	0	33001	
2748	0	33200	
2749	0	33156	
2750	0	33106	
2751	0	32896	
2752	0	32834	
2753	0	32720	
2754	0	32680	
2755	0	32785	
2756	0	32775	
2757	0	32722	
2758	0	32659	
2759	0	32672	
2760	0	32809	
2761	0	32762	
2762	0	32793	
2763	0	32808	
2764	0	32809	
2765	0	32809	
2766	0	32803	
2767	0	32800	
2768	0	32892	
2769	0	32804	
2770	0	32722	
2771	0	32720	
2772	0	32772	
2773	0	32802	
2774	0	32712	
2775	0	32768	
2776	0	32708	
2777	0	32602	
2778	0	32587	
2779	0	32774	
2780	0	32780	
2781	0	32912	
2782	0	33035	
2783	0	33156	
2784	0	33232	
2785	0	33068	
2786	0	33068	
2787	0	33049	
2788	0	32786	
2789	0	32751	
2790	0	32781	
2791	0	32802	
2792	0	32680	
2793	0	32636	
2794	0	32640	
2795	0	32554	
2796	0	32576	
2797	0	32642	
2798	0	32696	
2799	0	32672	
2800	0	32878	
2801	0	32898	
2802	0	33114	
2803	0	33265	
2804	0	33027	
2805	0	32904	
2806	0	32658	
2807	0	32692	
2808	0	32724	
2809	0	32714	
2810	0	32736	
2811	0	32843	
2812	0	33158	
2813	0	32626	
2814	0	32374	
2815	0	32704	
2816	0	32880	
2817	0	32891	
2818	0	32888	
2819	0	32816	
2820	0	32722	
2821	0	32672	
2822	0	32728	
2823	0	32800	
2824	0	32760	
2825	0	32750	
2826	0	32775	
2827	0	32848	
2828	0	32788	
2829	0	32836	
2830	0	32848	
2831	0	32852	
2832	0	32850	
2833	0	32814	
2834	0	32808	
2835	0	32804	
2836	0	32789	
2837	0	32840	
2838	0	32740	
2839	0	32788	
2840	0	32734	
2841	0	32784	
2842	0	32756	
2843	0	32768	
2844	0	33072	
2845	0	32952	
2846	0	32662	
2847	0	32364	
2848	0	32584	
2849	0	32804	
2850	0	32912	
2851	0	32888	
2852	0	32768	
2853	0	32856	
2854	0	33096	
2855	0	33078	
2856	0	32988	
2857	0	32834	
2858	0	33027	
2859	0	32688	
2860	0	32592	
2861	0	32672	
2862	0	32730	
2863	0	32792	
2864	0	32715	
2865	0	32712	
2866	0	32756	
2867	0	33146	
2868	0	32718	
2869	0	32677	
2870	0	32832	
2871	0	32736	
2872	0	32784	
2873	0	32828	
2874	0	33000	
2875	0	32824	
2876	0	32596	
2877	0	32844	
2878	0	32828	
2879	0	32754	
2880	0	32642	
2881	0	32826	
2882	0	32992	
2883	0	32927	
2884	0	32848	
2885	0	32782	
2886	0	32748	
2887	0	32812	
2888	0	32896	
2889	0	32728	
2890	0	32866	
2891	0	32891	
2892	0	32716	
2893	0	32738	
2894	0	32750	
2895	0	32876	
2896	0	32908	
2897	0	32864	
2898	0	32808	
2899	0	32786	
2900	0	32762	
2901	0	32816	
2902	0	32800	
2903	0	32784	
2904	0	32992	
2905	0	32656	
2906	0	32680	
2907	0	32768	
2908	0	33004	
2909	0	32944	
2910	0	32736	
2911	0	32668	
2912	0	32786	
2913	0	32730	
2914	0	32992	
2915	0	32630	
2916	0	32648	
2917	0	32792	
2918	0	32772	
2919	0	32770	
2920	0	32880	
2921	0	32928	
2922	0	32792	
2923	0	32763	
2924	0	32768	
2925	0	32882	
2926	0	32918	
2927	0	32918	
2928	0	32734	
2929	0	32740	
2930	0	32774	
2931	0	32912	
2932	0	32768	
2933	0	32817	
2934	0	32926	
2935	0	33241	
2936	0	32512	
2937	0	32640	
2938	0	32712	
2939	0	32711	
2940	0	32752	
2941	0	32800	
2942	0	32792	
2943	0	32798	
2944	0	32926	
2945	0	33256	
2946	0	32868	
2947	0	32516	
2948	0	32608	
2949	0	32932	
2950	0	32664	
2951	0	32738	
2952	0	32896	
2953	0	32953	
2954	0	32852	
2955	0	32706	
2956	0	32704	
2957	0	32908	
2958	0	32872	
2959	0	32880	
2960	0	32838	
2961	0	32706	
2962	0	32744	
2963	0	32800	
2964	0	32774	
2965	0	32800	
2966	0	32923	
2967	0	32834	
2968	0	32680	
2969	0	32714	
2970	0	32936	
2971	0	32906	
2972	0	32837	
2973	0	32832	
2974	0	32728	
2975	0	32745	
2976	0	32804	
2977	0	32868	
2978	0	32832	
2979	0	32784	
2980	0	32801	
2981	0	32892	
2982	0	32880	
2983	0	32840	
2984	0	32786	
2985	0	32792	
2986	0	32775	
2987	0	32944	
2988	0	32866	
2989	0	32714	
2990	0	32644	
2991	0	32786	
2992	0	32785	
2993	0	32752	
2994	0	32916	
2995	0	32856	
2996	0	32788	
2997	0	32730	
2998	0	32701	
2999	0	32786	
3000	0	32842	
3001	0	32834	
3002	0	32856	
3003	0	32800	
3004	0	32808	
3005	0	32804	
3006	0	32820	
3007	0	32796	
3008	0	32816	
3009	0	32818	
3010	0	32802	
3011	0	32816	
3012	0	32852	
3013	0	32816	
3014	0	32744	
3015	0	32800	
3016	0	32808	
3017	0	32884	
3018	0	32814	
3019	0	32775	
3020	0	32768	
3021	0	32808	
3022	0	32896	
3023	0	32845	
3024	0	32647	
3025	0	32788	
3026	0	32800	
3027	0	32775	
3028	0	32820	
3029	0	32864	
3030	0	32824	
3031	0	32817	
3032	0	32968	
3033	0	32898	
3034	0	32714	
3035	0	32608	
3036	0	32760	
3037	0	32750	
3038	0	32680	
3039	0	32748	
3040	0	32976	
3041	0	32954	
3042	0	32904	
3043	0	32861	
3044	0	32680	
3045	0	32750	
3046	0	32724	
3047	0	32800	
3048	0	32844	
3049	0	32816	
3050	0	32818	
3051	0	32828	
3052	0	32810	
3053	0	32871	
3054	0	32868	
3055	0	33158	
3056	0	32630	
3057	0	32702	
3058	0	32708	
3059	0	32800	
3060	0	32775	
3061	0	32700	
3062	0	32794	
3063	0	32793	
3064	0	32864	
3065	0	33012	
3066	0	32612	
3067	0	32756	
3068	0	33012	
3069	0	32710	
3070	0	32704	
3071	0	32772	
3072	0	32859	
3073	0	32846	
3074	0	32819	
3075	0	32848	
3076	0	33280	
3077	0	33126	
3078	0	32280	
3079	0	32420	
3080	0	32809	
3081	0	32704	
3082	0	32860	
3083	0	32772	
3084	0	32844	
3085	0	32722	
3086	0	32786	
3087	0	32810	
3088	0	32908	
3089	0	32940	
3090	0	32820	
3091	0	32775	
3092	0	32884	
3093	0	33002	
3094	0	32960	
3095	0	32864	
3096	0	32512	
3097	0	32642	
3098	0	32762	
3099	0	32810	
3100	0	32938	
3101	0	32884	
3102	0	32775	
3103	0	32731	
3104	0	32704	
3105	0	32756	
3106	0	32824	
3107	0	32784	
3108	0	32838	
3109	0	32902	
3110	0	32866	
3111	0	32798	
3112	0	32809	
3113	0	32788	
3114	0	32796	
3115	0	32804	
3116	0	32770	
3117	0	32792	
3118	0	32868	
3119	0	32880	
3120	0	32764	
3121	0	32840	
3122	0	32864	
3123	0	32785	
3124	0	32745	
3125	0	32744	
3126	0	32816	
3127	0	32792	
3128	0	32836	
3129	0	32784	
3130	0	32800	
3131	0	32816	
3132	0	32878	
3133	0	32866	
3134	0	32800	
3135	0	32734	
3136	0	32614	
3137	0	32906	
3138	0	33080	
3139	0	33056	
3140	0	32908	
3141	0	32552	
3142	0	32452	
3143	0	33378	
3144	0	32754	
3145	0	32022	
3146	0	32463	
3147	0	32730	
3148	0	32878	
3149	0	32888	
3150	0	32874	
3151	0	32903	
3152	0	32856	
3153	0	32891	
3154	0	32819	
3155	0	32834	
3156	0	32904	
3157	0	33059	
3158	0	32681	
3159	0	32724	
3160	0	32844	
3161	0	32856	
3162	0	32844	
3163	0	32792	
3164	0	32808	
3165	0	32811	
3166	0	32824	
3167	0	32837	
3168	0	32816	
3169	0	32816	
3170	0	32812	
3171	0	32816	
3172	0	32792	
3173	0	32816	
3174	0	32746	
3175	0	32784	
3176	0	32841	
3177	0	32864	
3178	0	32816	
3179	0	32775	
3180	0	32756	
3181	0	32784	
3182	0	32826	
3183	0	32784	
3184	0	32808	
3185	0	32820	
3186	0	32724	
3187	0	32720	
3188	0	32808	
3189	0	33172	
3190	0	33287	
3191	0	32864	
3192	0	32576	
3193	0	32570	
3194	0	32694	
3195	0	32378	
3196	0	32566	
3197	0	32837	
3198	0	32964	
3199	0	32768	
3200	0	32696	
3201	0	32843	
3202	0	32886	
3203	0	32928	
3204	0	33018	
3205	0	32808	
3206	0	32692	
3207	0	32794	
3208	0	32848	
3209	0	32797	
3210	0	32817	
3211	0	32760	
3212	0	32878	
3213	0	32841	
3214	0	32808	
3215	0	32816	
3216	0	32872	
3217	0	32792	
3218	0	32812	
3219	0	32794	
3220	0	32812	
3221	0	32876	
3222	0	32793	
3223	0	32788	
3224	0	32824	
3225	0	32828	
3226	0	32850	
3227	0	32832	
3228	0	32768	
3229	0	32813	
3230	0	32820	
3231	0	32832	
3232	0	32828	
3233	0	32804	
3234	0	32824	
3235	0	32754	
3236	0	32754	
3237	0	32688	
3238	0	32718	
3239	0	32960	
3240	0	33012	
3241	0	32962	
3242	0	32850	
3243	0	32881	
3244	0	32976	
3245	0	32748	
3246	0	32526	
3247	0	32616	
3248	0	32616	
3249	0	32842	
3250	0	32834	
3251	0	32608	
3252	0	32732	
3253	0	32947	
3254	0	32984	
3255	0	32944	
3256	0	32870	
3257	0	32738	
3258	0	32868	
3259	0	32744	
3260	0	32658	
3261	0	32774	
3262	0	32741	
3263	0	32744	
3264	0	32859	
3265	0	32868	
3266	0	32765	
3267	0	32768	
3268	0	32821	
3269	0	32820	
3270	0	32841	
3271	0	32817	
3272	0	32860	
3273	0	32882	
3274	0	32793	
3275	0	32841	
3276	0	32832	
3277	0	32812	
3278	0	32775	
3279	0	32775	
3280	0	32848	
3281	0	32876	
3282	0	32800	
3283	0	32794	
3284	0	32740	
3285	0	32720	
3286	0	32828	
3287	0	32800	
3288	0	32848	
3289	0	33001	
3290	0	33268	
3291	0	32642	
3292	0	32372	
3293	0	32662	
3294	0	32866	
3295	0	32929	
3296	0	32892	
3297	0	32828	
3298	0	32500	
3299	0	32772	
3300	0	32700	
3301	0	32722	
3302	0	32872	
3303	0	32794	
3304	0	32814	
3305	0	32984	
3306	0	32664	
3307	0	32668	
3308	0	32793	
3309	0	32833	
3310	0	32864	
3311	0	32762	
3312	0	32836	
3313	0	32802	
3314	0	32850	
3315	0	32856	
3316	0	32812	
3317	0	32740	
3318	0	32759	
3319	0	32892	
3320	0	32816	
3321	0	32770	
3322	0	32910	
3323	0	32921	
3324	0	32654	
3325	0	32688	
3326	0	32776	
3327	0	32808	
3328	0	32848	
3329	0	32820	
3330	0	32864	
3331	0	32827	
3332	0	32832	
3333	0	32793	
3334	0	32763	
3335	0	32796	
3336	0	32775	
3337	0	32864	
3338	0	32800	
3339	0	32900	
3340	0	32914	
3341	0	32760	
3342	0	32724	
3343	0	32610	
3344	0	32666	
3345	0	32745	
3346	0	33032	
3347	0	32848	
3348	0	32744	
3349	0	32955	
3350	0	32728	
3351	0	32647	
3352	0	32821	
3353	0	32876	
3354	0	32816	
3355	0	32792	
3356	0	32794	
3357	0	32736	
3358	0	32784	
3359	0	32800	
3360	0	32801	
3361	0	32850	
3362	0	32840	
3363	0	32824	
3364	0	32756	
3365	0	32754	
3366	0	32812	
3367	0	32892	
3368	0	32888	
3369	0	32824	
3370	0	32844	
3371	0	32816	
3372	0	32812	
3373	0	32800	
3374	0	32824	
3375	0	32848	
3376	0	32760	
3377	0	32736	
3378	0	32826	
3379	0	32714	
3380	0	32833	
3381	0	33120	
3382	0	32808	
3383	0	32651	
3384	0	32682	
3385	0	32636	
3386	0	32706	
3387	0	32900	
3388	0	32864	
3389	0	32768	
3390	0	32848	
3391	0	32816	
3392	0	32768	
3393	0	32760	
3394	0	32885	
3395	0	32809	
3396	0	32793	
3397	0	32808	
3398	0	32768	
3399	0	32802	
3400	0	32796	
3401	0	32792	
3402	0	32786	
3403	0	32829	
3404	0	32956	
3405	0	32672	
3406	0	32722	
3407	0	32760	
3408	0	32770	
3409	0	32868	
3410	0	32866	
3411	0	32824	
3412	0	32792	
3413	0	32836	
3414	0	32838	
3415	0	32808	
3416	0	32754	
3417	0	32778	
3418	0	32774	
3419	0	32854	
3420	0	32952	
3421	0	32868	
3422	0	32796	
3423	0	32732	
3424	0	32832	
3425	0	33002	
3426	0	32576	
3427	0	32804	
3428	0	32840	
3429	0	32720	
3430	0	32568	
3431	0	32790	
3432	0	32962	
3433	0	32900	
3434	0	32600	
3435	0	32748	
3436	0	32872	
3437	0	32775	
3438	0	32731	
3439	0	32829	
3440	0	32960	
3441	0	32752	
3442	0	32747	
3443	0	32760	
3444	0	32852	
3445	0	32808	
3446	0	32824	
3447	0	32840	
3448	0	32770	
3449	0	32760	
3450	0	32856	
3451	0	32930	
3452	0	32865	
3453	0	32744	
3454	0	32898	
3455	0	32737	
3456	0	33029	
3457	0	32914	
3458	0	32568	
3459	0	32736	
3460	0	32732	
3461	0	33092	
3462	0	33100	
3463	0	32390	
3464	0	32576	
3465	0	32635	
3466	0	32752	
3467	0	32808	
3468	0	32824	
3469	0	32847	
3470	0	32868	
3471	0	32893	
3472	0	32824	
3473	0	32829	
3474	0	32864	
3475	0	32809	
3476	0	32816	
3477	0	32856	
3478	0	32824	
3479	0	32852	
3480	0	32760	
3481	0	32745	
3482	0	32794	
3483	0	32760	
3484	0	32822	
3485	0	32834	
3486	0	32824	
3487	0	32760	
3488	0	32820	
3489	0	32880	
3490	0	32844	
3491	0	32796	
3492	0	32802	
3493	0	32864	
3494	0	32861	
3495	0	32760	
3496	0	32752	
3497	0	32812	
3498	0	32850	
3499	0	32912	
3500	0	32992	
3501	0	32919	
3502	0	32777	
3503	0	32900	
3504	0	32630	
3505	0	32520	
3506	0	32626	
3507	0	32852	
3508	0	32722	
3509	0	32664	
3510	0	32736	
3511	0	32857	
3512	0	32838	
3513	0	32896	
3514	0	32832	
3515	0	32744	
3516	0	32808	
3517	0	32828	
3518	0	32775	
3519	0	32792	
3520	0	32861	
3521	0	32818	
3522	0	32775	
3523	0	32790	
3524	0	32913	
3525	0	32932	
3526	0	32826	
3527	0	32854	
3528	0	32816	
3529	0	32862	
3530	0	32775	
3531	0	32850	
3532	0	32775	
3533	0	32720	
3534	0	32765	
3535	0	32685	
3536	0	32864	
3537	0	32864	
3538	0	32796	
3539	0	32769	
3540	0	32775	
3541	0	32864	
3542	0	32820	
3543	0	32796	
3544	0	32768	
3545	0	32800	
3546	0	32785	
3547	0	32826	
3548	0	32832	
3549	0	32784	
3550	0	32786	
3551	0	32796	
3552	0	32852	
3553	0	32895	
3554	0	32816	
3555	0	32824	
3556	0	32624	
3557	0	32966	
3558	0	33104	
3559	0	33429	
3560	0	32464	
3561	0	32216	
3562	0	32480	
3563	0	32882	
3564	0	32775	
3565	0	32696	
3566	0	33120	
3567	0	32822	
3568	0	32662	
3569	0	32474	
3570	0	32820	
3571	0	32794	
3572	0	32828	
3573	0	32922	
3574	0	32888	
3575	0	32866	
3576	0	32844	
3577	0	32827	
3578	0	32848	
3579	0	32876	
3580	0	32832	
3581	0	32800	
3582	0	32775	
3583	0	32802	
3584	0	32840	
3585	0	32797	
3586	0	32809	
3587	0	32786	
3588	0	32826	
3589	0	32815	
3590	0	32835	
3591	0	32832	
3592	0	32867	
3593	0	32800	
3594	0	32775	
3595	0	32809	
3596	0	32796	
3597	0	32828	
3598	0	32808	
3599	0	32774	
3600	0	32778	
3601	0	32750	
3602	0	32834	
3603	0	32826	
3604	0	32802	
3605	0	32812	
3606	0	32836	
3607	0	32816	
3608	0	33004	
3609	0	32633	
3610	0	32832	
3611	0	32864	
3612	0	32760	
3613	0	33036	
3614	0	32746	
3615	0	32850	
3616	0	32436	
3617	0	32652	
3618	0	32714	
3619	0	32686	
3620	0	32758	
3621	0	32794	
3622	0	32804	
3623	0	32864	
3624	0	32844	
3625	0	32876	
3626	0	32840	
3627	0	32928	
3628	0	32832	
3629	0	32744	
3630	0	32824	
3631	0	32868	
3632	0	32795	
3633	0	32795	
3634	0	32792	
3635	0	32736	
3636	0	32760	
3637	0	32786	
3638	0	32810	
3639	0	32834	
3640	0	32760	
3641	0	32794	
3642	0	32844	
3643	0	32808	
3644	0	32812	
3645	0	32775	
3646	0	32811	
3647	0	32796	
3648	0	32810	
3649	0	32826	
3650	0	32800	
3651	0	32840	
3652	0	32792	
3653	0	32868	
3654	0	32818	
3655	0	32775	
3656	0	32730	
3657	0	32810	
3658	0	32904	
3659	0	32836	
3660	0	32839	
3661	0	32990	
3662	0	33084	
3663	0	33042	
3664	0	32718	
3665	0	33216	
3666	0	32146	
3667	0	32390	
3668	0	32889	
3669	0	32512	
3670	0	32618	
3671	0	32921	
3672	0	32921	
3673	0	32512	
3674	0	32686	
3675	0	32856	
3676	0	32892	
3677	0	32852	
3678	0	32852	
3679	0	32762	
3680	0	32734	
3681	0	32840	
3682	0	32840	
3683	0	32866	
3684	0	32864	
3685	0	32824	
3686	0	32818	
3687	0	32813	
3688	0	32820	
3689	0	32903	
3690	0	32880	
3691	0	32861	
3692	0	32818	
3693	0	32868	
3694	0	32808	
3695	0	32747	
3696	0	32764	
3697	0	32786	
3698	0	32816	
3699	0	32832	
3700	0	32832	
3701	0	32818	
3702	0	32763	
3703	0	32712	
3704	0	32842	
3705	0	33024	
3706	0	32795	
3707	0	32844	
3708	0	32864	
3709	0	32636	
3710	0	32666	
3711	0	32860	
3712	0	32677	
3713	0	32758	
3714	0	33012	
3715	0	32856	
3716	0	32708	
3717	0	32604	
3718	0	32840	
3719	0	32813	
3720	0	32981	
3721	0	32790	
3722	0	32608	
3723	0	32636	
3724	0	32702	
3725	0	32740	
3726	0	32792	
3727	0	32921	
3728	0	33104	
3729	0	32626	
3730	0	32773	
3731	0	32828	
3732	0	32836	
3733	0	32844	
3734	0	32846	
3735	0	32809	
3736	0	32812	
3737	0	32796	
3738	0	32840	
3739	0	32828	
3740	0	32792	
3741	0	32796	
3742	0	32714	
3743	0	32824	
3744	0	32918	
3745	0	32897	
3746	0	32936	
3747	0	32676	
3748	0	32647	
3749	0	32833	
3750	0	32884	
3751	0	32836	
3752	0	32805	
3753	0	32758	
3754	0	32775	
3755	0	32728	
3756	0	32732	
3757	0	32841	
3758	0	32812	
3759	0	32716	
3760	0	32732	
3761	0	32800	
3762	0	32810	
3763	0	32835	
3764	0	32836	
3765	0	32820	
3766	0	32846	
3767	0	32854	
3768	0	32809	
3769	0	32838	
3770	0	32952	
3771	0	32832	
3772	0	32682	
3773	0	32747	
3774	0	32760	
3775	0	32808	
3776	0	32840	
3777	0	32844	
3778	0	32852	
3779	0	32726	
3780	0	32808	
3781	0	32820	
3782	0	32800	
3783	0	32868	
3784	0	32999	
3785	0	32858	
3786	0	32912	
3787	0	32539	
3788	0	32775	
3789	0	32632	
3790	0	32902	
3791	0	32840	
3792	0	32684	
3793	0	32706	
3794	0	32800	
3795	0	32784	
3796	0	33032	
3797	0	33012	
3798	0	32504	
3799	0	32584	
3800	0	32836	
3801	0	32832	
3802	0	32858	
3803	0	32784	
3804	0	32718	
3805	0	32848	
3806	0	32978	
3807	0	32701	
3808	0	32793	
3809	0	32904	
3810	0	32820	
3811	0	32808	
3812	0	32809	
3813	0	32824	
3814	0	32774	
3815	0	32774	
3816	0	32796	
3817	0	32704	
3818	0	32760	
3819	0	32900	
3820	0	32852	
3821	0	32666	
3822	0	32950	
3823	0	33072	
3824	0	32774	
3825	0	32775	
3826	0	32748	
3827	0	32690	
3828	0	32856	
3829	0	33112	
3830	0	32992	
3831	0	32792	
3832	0	32664	
3833	0	32608	
3834	0	32629	
3835	0	32628	
3836	0	32708	
3837	0	32887	
3838	0	32902	
3839	0	32800	
3840	0	32825	
3841	0	32775	
3842	0	32740	
3843	0	32878	
3844	0	32892	
3845	0	32876	
3846	0	32752	
3847	0	32808	
3848	0	32828	
3849	0	32834	
3850	0	32784	
3851	0	32775	
3852	0	32857	
3853	0	32888	
3854	0	32720	
3855	0	32761	
3856	0	32774	
3857	0	32775	
3858	0	32841	
3859	0	32852	
3860	0	32808	
3861	0	32850	
3862	0	32844	
3863	0	32832	
3864	0	32756	
3865	0	32998	
3866	0	32834	
3867	0	32480	
3868	0	32788	
3869	0	32985	
3870	0	32736	
3871	0	32690	
3872	0	32688	
3873	0	32775	
3874	0	32824	
3875	0	32795	
3876	0	32824	
3877	0	32869	
3878	0	32837	
3879	0	32794	
3880	0	32775	
3881	0	32920	
3882	0	32784	
3883	0	32784	
3884	0	32824	
3885	0	32888	
3886	0	32928	
3887	0	32928	
3888	0	32566	
3889	0	32967	
3890	0	32832	
3891	0	32647	
3892	0	32628	
3893	0	32804	
3894	0	32926	
3895	0	32903	
3896	0	32904	
3897	0	32841	
3898	0	32772	
3899	0	32780	
3900	0	32714	
3901	0	32608	
3902	0	32722	
3903	0	32762	
3904	0	32768	
3905	0	32884	
3906	0	32888	
3907	0	32812	
3908	0	32809	
3909	0	32810	
3910	0	32788	
3911	0	32800	
3912	0	32956	
3913	0	33008	
3914	0	33032	
3915	0	32484	
3916	0	32992	
3917	0	32708	
3918	0	32550	
3919	0	32775	
3920	0	32838	
3921	0	32752	
3922	0	32866	
3923	0	32892	
3924	0	32896	
3925	0	32834	
3926	0	32804	
3927	0	32800	
3928	0	32800	
3929	0	32792	
3930	0	32748	
3931	0	32756	
3932	0	32740	
3933	0	32772	
3934	0	32821	
3935	0	32812	
3936	0	32946	
3937	0	32840	
3938	0	32758	
3939	0	32768	
3940	0	32722	
3941	0	32816	
3942	0	32834	
3943	0	33090	
3944	0	32908	
3945	0	32560	
3946	0	32818	
3947	0	32820	
3948	0	32818	
3949	0	32792	
3950	0	32758	
3951	0	32880	
3952	0	32602	
3953	0	32634	
3954	0	32748	
3955	0	32825	
3956	0	32769	
3957	0	32794	
3958	0	32820	
3959	0	32832	
3960	0	32898	
3961	0	32876	
3962	0	32866	
3963	0	32775	
3964	0	32710	
3965	0	32916	
3966	0	33134	
3967	0	32690	
3968	0	32624	
3969	0	32800	
3970	0	32884	
3971	0	32904	
3972	0	33064	
3973	0	32780	
3974	0	32325	
3975	0	32592	
3976	0	32762	
3977	0	32824	
3978	0	32846	
3979	0	32941	
3980	0	32880	
3981	0	32724	
3982	0	32796	
3983	0	32872	
3984	0	32842	
3985	0	32768	
3986	0	32760	
3987	0	32775	
3988	0	32816	
3989	0	32768	
3990	0	32806	
3991	0	32924	
3992	0	32952	
3993	0	32760	
3994	0	32761	
3995	0	33042	
3996	0	32793	
3997	0	32775	
3998	0	32632	
3999	0	32612	
4000	0	32748	
4001	0	32864	
4002	0	32850	
4003	0	32791	
4004	0	32848	
4005	0	32840	
4006	0	32732	
4007	0	32832	
4008	0	32848	
4009	0	32856	
4010	0	32804	
4011	0	33017	
4012	0	33232	
4013	0	32666	
4014	0	32752	
4015	0	32858	
4016	0	32866	
4017	0	32789	
4018	0	32564	
4019	0	32544	
4020	0	32696	
4021	0	32516	
4022	0	32520	
4023	0	32610	
4024	0	32860	
4025	0	32998	
4026	0	32944	
4027	0	32984	
4028	0	32816	
4029	0	32804	
4030	0	32940	
4031	0	32788	
4032	0	32896	
4033	0	32925	
4034	0	32774	
4035	0	32832	
4036	0	32696	
4037	0	32789	
4038	0	33008	
4039	0	32938	
4040	0	32884	
4041	0	32836	
4042	0	32612	
4043	0	32522	
4044	0	32812	
4045	0	33018	
4046	0	32716	
4047	0	32624	
4048	0	32946	
4049	0	32802	
4050	0	32538	
4051	0	32668	
4052	0	32936	
4053	0	32750	
4054	0	32870	
4055	0	33316	
4056	0	32888	
4057	0	32524	
4058	0	32644	
4059	0	32839	
4060	0	32933	
4061	0	32952	
4062	0	32998	
4063	0	32816	
4064	0	32530	
4065	0	32836	
4066	0	32726	
4067	0	32772	
4068	0	32829	
4069	0	32793	
4070	0	32808	
4071	0	32827	
4072	0	32800	
4073	0	32956	
4074	0	32824	
4075	0	32696	
4076	0	32824	
4077	0	32850	
4078	0	32810	
4079	0	32768	
4080	0	32792	
4081	0	32812	
4082	0	32814	
4083	0	32827	
4084	0	32716	
4085	0	32756	
4086	0	32864	
4087	0	33004	
4088	0	32950	
4089	0	32744	
4090	0	32698	
4091	0	32756	
4092	0	32824	
4093	0	32802	
4094	0	32648	
4095	0	32647	
4096	0	32788	
4097	0	32874	
4098	0	32894	
4099	0	32854	
4100	0	32837	
4101	0	32861	
4102	0	32704	
4103	0	32760	
4104	0	32805	
4105	0	32900	
4106	0	33108	
4107	0	32688	
4108	0	32738	
4109	0	32736	
4110	0	32666	
4111	0	32844	
4112	0	32977	
4113	0	32704	
4114	0	32809	
4115	0	32850	
4116	0	32840	
4117	0	32932	
4118	0	32984	
4119	0	32908	
4120	0	32634	
4121	0	32796	
4122	0	32770	
4123	0	32676	
4124	0	32679	
4125	0	32533	
4126	0	32658	
4127	0	32638	
4128	0	32618	
4129	0	32895	
4130	0	33086	
4131	0	32960	
4132	0	32944	
4133	0	32980	
4134	0	32838	
4135	0	32786	
4136	0	32804	
4137	0	32802	
4138	0	32768	
4139	0	32798	
4140	0	32812	
4141	0	32866	
4142	0	32808	
4143	0	32736	
4144	0	32784	
4145	0	32804	
4146	0	32820	
4147	0	32820	
4148	0	32836	
4149	0	32788	
4150	0	32804	
4151	0	32885	
4152	0	32848	
4153	0	32793	
4154	0	32790	
4155	0	32921	
4156	0	32744	
4157	0	32668	
4158	0	32768	
4159	0	32952	
4160	0	32880	
4161	0	32553	
4162	0	32748	
4163	0	32772	
4164	0	32696	
4165	0	32754	
4166	0	32820	
4167	0	32964	
4168	0	33016	
4169	0	32904	
4170	0	33046	
4171	0	32792	
4172	0	32736	
4173	0	32824	
4174	0	32775	
4175	0	32642	
4176	0	32541	
4177	0	32680	
4178	0	32824	
4179	0	32914	
4180	0	32864	
4181	0	33216	
4182	0	32960	
4183	0	32598	
4184	0	32720	
4185	0	32800	
4186	0	32479	
4187	0	32338	
4188	0	32603	
4189	0	32896	
4190	0	32852	
4191	0	32998	
4192	0	32804	
4193	0	32736	
4194	0	32900	
4195	0	32896	
4196	0	32930	
4197	0	32844	
4198	0	32824	
4199	0	32864	
4200	0	32954	
4201	0	32810	
4202	0	32760	
4203	0	32732	
4204	0	33024	
4205	0	32972	
4206	0	32816	
4207	0	32825	
4208	0	32868	
4209	0	32865	
4210	0	32874	
4211	0	32284	
4212	0	32240	
4213	0	32579	
4214	0	32746	
4215	0	32976	
4216	0	32888	
4217	0	32852	
4218	0	32946	
4219	0	32944	
4220	0	32924	
4221	0	32872	
4222	0	33174	
4223	0	32996	
4224	0	32576	
4225	0	32320	
4226	0	32704	
4227	0	32676	
4228	0	32684	
4229	0	32832	
4230	0	32936	
4231	0	32816	
4232	0	32908	
4233	0	32816	
4234	0	32809	
4235	0	32884	
4236	0	32885	
4237	0	32852	
4238	0	32756	
4239	0	32820	
4240	0	32800	
4241	0	32834	
4242	0	32788	
4243	0	32794	
4244	0	32808	
4245	0	32820	
4246	0	32788	
4247	0	32864	
4248	0	32789	
4249	0	32768	
4250	0	32708	
4251	0	32674	
4252	0	32740	
4253	0	32921	
4254	0	32954	
4255	0	32856	
4256	0	32768	
4257	0	32824	
4258	0	32900	
4259	0	32775	
4260	0	32716	
4261	0	32832	
4262	0	32894	
4263	0	32796	
4264	0	33026	
4265	0	32549	
4266	0	32728	
4267	0	32930	
4268	0	32632	
4269	0	32790	
4270	0	32878	
4271	0	32809	
4272	0	32775	
4273	0	32864	
4274	0	32754	
4275	0	32844	
4276	0	32842	
4277	0	32744	
4278	0	32763	
4279	0	32736	
4280	0	32712	
4281	0	32788	
4282	0	32824	
4283	0	32800	
4284	0	32860	
4285	0	32848	
4286	0	32765	
4287	0	32932	
4288	0	32763	
4289	0	32792	
4290	0	32813	
4291	0	32818	
4292	0	32892	
4293	0	32872	
4294	0	32826	
4295	0	32788	
4296	0	32816	
4297	0	32820	
4298	0	32832	
4299	0	32792	
4300	0	32754	
4301	0	32868	
4302	0	32927	
4303	0	32772	
4304	0	32659	
4305	0	32694	
4306	0	32686	
4307	0	32723	
4308	0	32804	
4309	0	32911	
4310	0	32932	
4311	0	32868	
4312	0	32658	
4313	0	32634	
4314	0	32832	
4315	0	33090	
4316	0	33133	
4317	0	32784	
4318	0	32786	
4319	0	32752	
4320	0	32808	
4321	0	32706	
4322	0	32600	
4323	0	32640	
4324	0	32774	
4325	0	32868	
4326	0	32884	
4327	0	32806	
4328	0	32775	
4329	0	32837	
4330	0	32946	
4331	0	32856	
4332	0	32680	
4333	0	32656	
4334	0	32712	
4335	0	32774	
4336	0	32832	
4337	0	32876	
4338	0	33024	
4339	0	33010	
4340	0	32651	
4341	0	32732	
4342	0	32742	
4343	0	32740	
4344	0	32804	
4345	0	32774	
4346	0	32757	
4347	0	32752	
4348	0	32824	
4349	0	32844	
4350	0	32892	
4351	0	32844	
4352	0	33089	
4353	0	33082	
4354	0	32844	
4355	0	32718	
4356	0	32596	
4357	0	32604	
4358	0	32552	
4359	0	32704	
4360	0	32886	
4361	0	32812	
4362	0	32804	
4363	0	32872	
4364	0	32760	
4365	0	32775	
4366	0	32860	
4367	0	32930	
4368	0	32835	
4369	0	32720	
4370	0	32762	
4371	0	32930	
4372	0	32997	
4373	0	33050	
4374	0	33012	
4375	0	32507	
4376	0	32600	
4377	0	32588	
4378	0	32708	
4379	0	32916	
4380	0	33007	
4381	0	33016	
4382	0	32896	
4383	0	32860	
4384	0	32797	
4385	0	32752	
4386	0	32754	
4387	0	32952	
4388	0	32728	
4389	0	32844	
4390	0	33058	
4391	0	33098	
4392	0	32613	
4393	0	32658	
4394	0	32544	
4395	0	32278	
4396	0	32344	
4397	0	32512	
4398	0	32970	
4399	0	32404	
4400	0	32526	
4401	0	33148	
4402	0	33104	
4403	0	32794	
4404	0	32865	
4405	0	32938	
4406	0	32950	
4407	0	32820	
4408	0	32971	
4409	0	32956	
4410	0	32726	
4411	0	32836	
4412	0	32932	
4413	0	32786	
4414	0	32874	
4415	0	32772	
4416	0	32780	
4417	0	32841	
4418	0	32900	
4419	0	32896	
4420	0	32800	
4421	0	32706	
4422	0	32748	
4423	0	32724	
4424	0	32840	
4425	0	32725	
4426	0	32932	
4427	0	32938	
4428	0	32884	
4429	0	32841	
4430	0	32780	
4431	0	32810	
4432	0	32836	
4433	0	32744	
4434	0	32682	
4435	0	32484	
4436	0	32784	
4437	0	32932	
4438	0	32756	
4439	0	32826	
4440	0	32900	
4441	0	32841	
4442	0	32816	
4443	0	32738	
4444	0	32806	
4445	0	32860	
4446	0	32930	
4447	0	32774	
4448	0	32716	
4449	0	32775	
4450	0	32845	
4451	0	32848	
4452	0	32834	
4453	0	32850	
4454	0	32794	
4455	0	32669	
4456	0	33049	
4457	0	33598	
4458	0	33632	
4459	0	33578	
4460	0	33520	
4461	0	33498	
4462	0	33380	
4463	0	33280	
4464	0	32314	
4465	0	30599	
4466	0	30998	
4467	0	31692	
4468	0	31516	
4469	0	30996	
4470	0	31968	
4471	0	32408	
4472	0	32499	
4473	0	33241	
4474	0	33437	
4475	0	33226	
4476	0	33235	
4477	0	33210	
4478	0	33309	
4479	0	33329	
4480	0	33223	
4481	0	33240	
4482	0	33386	
4483	0	33114	
4484	0	33060	
4485	0	33156	
4486	0	33052	
4487	0	32784	
4488	0	32676	
4489	0	32544	
4490	0	32544	
4491	0	33032	
4492	0	33020	
4493	0	33132	
4494	0	33132	
4495	0	32884	
4496	0	32768	
4497	0	32676	
4498	0	32420	
4499	0	32848	
4500	0	33008	
4501	0	32672	
4502	0	32473	
4503	0	32744	
4504	0	32692	
4505	0	32169	
4506	0	32220	
4507	0	32576	
4508	0	32786	
4509	0	32676	
4510	0	32968	
4511	0	33052	
4512	0	33204	
4513	0	32906	
4514	0	32841	
4515	0	32792	
4516	0	32852	
4517	0	32789	
4518	0	32869	
4519	0	32829	
4520	0	32946	
4521	0	32956	
4522	0	33040	
4523	0	32682	
4524	0	32736	
4525	0	32896	
4526	0	33192	
4527	0	32671	
4528	0	32930	
4529	0	33060	
4530	0	33106	
4531	0	32960	
4532	0	32938	
4533	0	32989	
4534	0	32928	
4535	0	33228	
4536	0	32966	
4537	0	31928	
4538	0	32131	
4539	0	32647	
4540	0	32646	
4541	0	32136	
4542	0	32281	
4543	0	31952	
4544	0	32346	
4545	0	32912	
4546	0	32978	
4547	0	32944	
4548	0	32508	
4549	0	32552	
4550	0	32882	
4551	0	33106	
4552	0	33232	
4553	0	33360	
4554	0	33277	
4555	0	33072	
4556	0	33078	
4557	0	32923	
4558	0	32850	
4559	0	32768	
4560	0	33180	
4561	0	32832	
4562	0	33179	
4563	0	33200	
4564	0	33080	
4565	0	32918	
4566	0	32728	
4567	0	31980	
4568	0	32040	
4569	0	32202	
4570	0	32314	
4571	0	32448	
4572	0	32792	
4573	0	32928	
4574	0	33260	
4575	0	33248	
4576	0	33648	
4577	0	33890	
4578	0	33799	
4579	0	33680	
4580	0	33174	
4581	0	32865	
4582	0	32756	
4583	0	31648	
4584	0	30016	
4585	0	30148	
4586	0	31576	
4587	0	32636	
4588	0	32998	
4589	0	32844	
4590	0	32824	
4591	0	33158	
4592	0	33632	
4593	0	33528	
4594	0	33568	
4595	0	33531	
4596	0	32981	
4597	0	33018	
4598	0	33424	
4599	0	33577	
4600	0	33590	
4601	0	33490	
4602	0	33872	
4603	0	33332	
4604	0	32346	
4605	0	32334	
4606	0	31864	
4607	0	31584	
4608	0	31529	
4609	0	31941	
4610	0	32322	
4611	0	32699	
4612	0	33040	
4613	0	32532	
4614	0	31972	
4615	0	32320	
4616	0	33034	
4617	0	33276	
4618	0	33048	
4619	0	32984	
4620	0	33104	
4621	0	33212	
4622	0	33216	
4623	0	32560	
4624	0	32631	
4625	0	33040	
4626	0	32971	
4627	0	33264	
4628	0	33388	
4629	0	32992	
4630	0	32880	
4631	0	33008	
4632	0	32902	
4633	0	32775	
4634	0	32485	
4635	0	32540	
4636	0	32872	
4637	0	32890	
4638	0	32492	
4639	0	32809	
4640	0	33174	
4641	0	32944	
4642	0	33175	
4643	0	32797	
4644	0	32984	
4645	0	33570	
4646	0	32884	
4647	0	32712	
4648	0	32888	
4649	0	32736	
4650	0	31787	
4651	0	31576	
4652	0	31520	
4653	0	32516	
4654	0	32923	
4655	0	33020	
4656	0	32844	
4657	0	32898	
4658	0	33012	
4659	0	33120	
4660	0	33008	
4661	0	32954	
4662	0	32850	
4663	0	33102	
4664	0	33287	
4665	0	33250	
4666	0	32898	
4667	0	33072	
4668	0	33304	
4669	0	33360	
4670	0	32544	
4671	0	32698	
4672	0	32248	
4673	0	33004	
4674	0	33228	
4675	0	32796	
4676	0	32962	
4677	0	32793	
4678	0	31034	
4679	0	30788	
4680	0	31673	
4681	0	32754	
4682	0	32105	
4683	0	32196	
4684	0	33246	
4685	0	33480	
4686	0	33628	
4687	0	33536	
4688	0	33104	
4689	0	32912	
4690	0	33666	
4691	0	33744	
4692	0	32764	
4693	0	33424	
4694	0	34338	
4695	0	34688	
4696	0	32996	
4697	0	32336	
4698	0	30862	
4699	0	30492	
4700	0	31265	
4701	0	32178	
4702	0	33396	
4703	0	32775	
4704	0	32870	
4705	0	33684	
4706	0	33584	
4707	0	32768	
4708	0	31892	
4709	0	31608	
4710	0	31930	
4711	0	32958	
4712	0	33234	
4713	0	32510	
4714	0	32544	
4715	0	33190	
4716	0	33362	
4717	0	33008	
4718	0	32979	
4719	0	32878	
4720	0	33234	
4721	0	33517	
4722	0	33272	
4723	0	33100	
4724	0	33014	
4725	0	32874	
4726	0	32608	
4727	0	32326	
4728	0	32263	
4729	0	32672	
4730	0	33016	
4731	0	33548	
4732	0	33584	
4733	0	33362	
4734	0	33146	
4735	0	33356	
4736	0	32923	
4737	0	31304	
4738	0	31209	
4739	0	31648	
4740	0	32552	
4741	0	33316	
4742	0	33820	
4743	0	33304	
4744	0	32640	
4745	0	32700	
4746	0	32952	
4747	0	32903	
4748	0	32900	
4749	0	32381	
4750	0	32200	
4751	0	32954	
4752	0	32954	
4753	0	32696	
4754	0	32658	
4755	0	32634	
4756	0	32824	
4757	0	33040	
4758	0	32868	
4759	0	33080	
4760	0	32752	
4761	0	32424	
4762	0	32592	
4763	0	33126	
4764	0	33329	
4765	0	33324	
4766	0	33240	
4767	0	33088	
4768	0	33396	
4769	0	33388	
4770	0	33030	
4771	0	32796	
4772	0	32192	
4773	0	32336	
4774	0	32652	
4775	0	33074	
4776	0	32722	
4777	0	33428	
4778	0	34058	
4779	0	32492	
4780	0	31084	
4781	0	31970	
4782	0	32192	
4783	0	32278	
4784	0	31832	
4785	0	30940	
4786	0	32322	
4787	0	33650	
4788	0	33948	
4789	0	33729	
4790	0	33436	
4791	0	33088	
4792	0	33408	
4793	0	31867	
4794	0	30458	
4795	0	30725	
4796	0	31563	
4797	0	33033	
4798	0	33697	
4799	0	34016	
4800	0	33568	
4801	0	33377	
4802	0	33901	
4803	0	34002	
4804	0	34002	
4805	0	34084	
4806	0	33677	
4807	0	33498	
4808	0	33792	
4809	0	33174	
4810	0	30880	
4811	0	30888	
4812	0	31268	
4813	0	31494	
4814	0	31995	
4815	0	33211	
4816	0	33656	
4817	0	33852	
4818	0	33516	
4819	0	33172	
4820	0	32048	
4821	0	32511	
4822	0	32765	
4823	0	32384	
4824	0	32168	
4825	0	32078	
4826	0	32890	
4827	0	33472	
4828	0	32892	
4829	0	32728	
4830	0	32618	
4831	0	32536	
4832	0	32895	
4833	0	33694	
4834	0	33064	
4835	0	33442	
4836	0	33900	
4837	0	33473	
4838	0	32520	
4839	0	32208	
4840	0	32650	
4841	0	32646	
4842	0	32386	
4843	0	32244	
4844	0	33176	
4845	0	33896	
4846	0	33916	
4847	0	32580	
4848	0	33176	
4849	0	34928	
4850	0	34778	
4851	0	33750	
4852	0	32990	
4853	0	31700	
4854	0	31204	
4855	0	30300	
4856	0	28736	
4857	0	28576	
4858	0	31440	
4859	0	33244	
4860	0	32834	
4861	0	32872	
4862	0	34506	
4863	0	36871	
4864	0	36359	
4865	0	35226	
4866	0	35908	
4867	0	34104	
4868	0	29984	
4869	0	28800	
4870	0	28758	
4871	0	28833	
4872	0	29836	
4873	0	30829	
4874	0	32290	
4875	0	33934	
4876	0	33978	
4877	0	33740	
4878	0	35080	
4879	0	34948	
4880	0	33266	
4881	0	32444	
4882	0	32920	
4883	0	34364	
4884	0	35048	
4885	0	33776	
4886	0	32901	
4887	0	34460	
4888	0	35186	
4889	0	33876	
4890	0	31336	
4891	0	29144	
4892	0	30672	
4893	0	31826	
4894	0	30776	
4895	0	31468	
4896	0	31540	
4897	0	33488	
4898	0	34333	
4899	0	33376	
4900	0	32986	
4901	0	32602	
4902	0	32296	
4903	0	33000	
4904	0	33248	
4905	0	33820	
4906	0	34272	
4907	0	33688	
4908	0	33997	
4909	0	35172	
4910	0	33286	
4911	0	33192	
4912	0	32192	
4913	0	31076	
4914	0	32248	
4915	0	31849	
4916	0	32616	
4917	0	31815	
4918	0	32820	
4919	0	32774	
4920	0	31520	
4921	0	31228	
4922	0	31948	
4923	0	32592	
4924	0	33018	
4925	0	33225	
4926	0	34248	
4927	0	34060	
4928	0	33363	
4929	0	33410	
4930	0	33600	
4931	0	33664	
4932	0	34146	
4933	0	34360	
4934	0	33640	
4935	0	33870	
4936	0	33104	
4937	0	31552	
4938	0	30626	
4939	0	30209	
4940	0	31708	
4941	0	33668	
4942	0	33809	
4943	0	32768	
4944	0	30821	
4945	0	32352	
4946	0	32544	
4947	0	30944	
4948	0	27458	
4949	0	29862	
4950	0	33056	
4951	0	34096	
4952	0	34012	
4953	0	34168	
4954	0	32802	
4955	0	32220	
4956	0	33030	
4957	0	33402	
4958	0	35474	
4959	0	36516	
4960	0	35624	
4961	0	36218	
4962	0	36248	
4963	0	35972	
4964	0	35328	
4965	0	32064	
4966	0	30344	
4967	0	28978	
4968	0	28521	
4969	0	28604	
4970	0	29124	
4971	0	31264	
4972	0	31179	
4973	0	31362	
4974	0	32476	
4975	0	32706	
4976	0	33180	
4977	0	32608	
4978	0	33640	
4979	0	36064	
4980	0	35679	
4981	0	33888	
4982	0	33176	
4983	0	33390	
4984	0	32940	
4985	0	33164	
4986	0	33276	
4987	0	32802	
4988	0	33498	
4989	0	34352	
4990	0	33427	
4991	0	31459	
4992	0	31824	
4993	0	32784	
4994	0	31784	
4995	0	30226	
4996	0	31696	
4997	0	32605	
4998	0	33362	
4999	0	34333	
5000	0	34238	
5001	0	33410	
5002	0	33472	
5003	0	33300	
5004	0	32860	
5005	0	32622	
5006	0	32704	
5007	0	32170	
5008	0	30544	
5009	0	30634	
5010	0	32788	
5011	0	33018	
5012	0	33236	
5013	0	33195	
5014	0	34152	
5015	0	34749	
5016	0	35416	
5017	0	35232	
5018	0	34274	
5019	0	34352	
5020	0	32372	
5021	0	29088	
5022	0	30738	
5023	0	32628	
5024	0	32600	
5025	0	28498	
5026	0	28200	
5027	0	30322	
5028	0	32330	
5029	0	33120	
5030	0	33284	
5031	0	33904	
5032	0	34508	
5033	0	34325	
5034	0	34480	
5035	0	33740	
5036	0	35072	
5037	0	34360	
5038	0	34796	
5039	0	34044	
5040	0	31676	
5041	0	31546	
5042	0	29873	
5043	0	30660	
5044	0	32314	
5045	0	33826	
5046	0	32994	
5047	0	32746	
5048	0	32584	
5049	0	33536	
5050	0	34880	
5051	0	35168	
5052	0	35640	
5053	0	33458	
5054	0	31104	
5055	0	30240	
5056	0	28948	
5057	0	27536	
5058	0	30012	
5059	0	32452	
5060	0	34084	
5061	0	34258	
5062	0	33426	
5063	0	34748	
5064	0	34234	
5065	0	34488	
5066	0	35032	
5067	0	34989	
5068	0	35361	
5069	0	35326	
5070	0	34514	
5071	0	30072	
5072	0	24748	
5073	0	27688	
5074	0	31264	
5075	0	33048	
5076	0	34180	
5077	0	35155	
5078	0	34860	
5079	0	33840	
5080	0	33040	
5081	0	32382	
5082	0	31516	
5083	0	31404	
5084	0	32010	
5085	0	34482	
5086	0	34076	
5087	0	33461	
5088	0	33788	
5089	0	34168	
5090	0	34606	
5091	0	34044	
5092	0	33644	
5093	0	32647	
5094	0	32950	
5095	0	33082	
5096	0	33092	
5097	0	31682	
5098	0	31645	
5099	0	29117	
5100	0	27128	
5101	0	28900	
5102	0	31862	
5103	0	33792	
5104	0	34149	
5105	0	32970	
5106	0	34442	
5107	0	36196	
5108	0	35490	
5109	0	33696	
5110	0	33960	
5111	0	33528	
5112	0	32528	
5113	0	29916	
5114	0	31170	
5115	0	34588	
5116	0	33668	
5117	0	29489	
5118	0	29504	
5119	0	31751	
5120	0	33180	
5121	0	33728	
5122	0	33570	
5123	0	33252	
5124	0	33378	
5125	0	33504	
5126	0	33912	
5127	0	34856	
5128	0	33632	
5129	0	32156	
5130	0	33225	
5131	0	33060	
5132	0	33287	
5133	0	33076	
5134	0	33798	
5135	0	32716	
5136	0	32648	
5137	0	31660	
5138	0	30944	
5139	0	31968	
5140	0	33145	
5141	0	35722	
5142	0	36716	
5143	0	34281	
5144	0	33721	
5145	0	32224	
5146	0	31751	
5147	0	27616	
5148	0	26072	
5149	0	29644	
5150	0	31672	
5151	0	33632	
5152	0	33504	
5153	0	34020	
5154	0	33512	
5155	0	33920	
5156	0	34400	
5157	0	35168	
5158	0	34660	
5159	0	33624	
5160	0	34848	
5161	0	36389	
5162	0	35804	
5163	0	33852	
5164	0	34338	
5165	0	33404	
5166	0	30336	
5167	0	25234	
5168	0	23644	
5169	0	27868	
5170	0	30888	
5171	0	32700	
5172	0	33736	
5173	0	34056	
5174	0	32760	
5175	0	34452	
5176	0	34800	
5177	0	34136	
5178	0	34405	
5179	0	34674	
5180	0	33785	
5181	0	33580	
5182	0	33236	
5183	0	32752	
5184	0	31892	
5185	0	34092	
5186	0	34616	
5187	0	33400	
5188	0	32900	
5189	0	32344	
5190	0	33178	
5191	0	32752	
5192	0	31832	
5193	0	31984	
5194	0	32216	
5195	0	32232	
5196	0	33518	
5197	0	36264	
5198	0	37350	
5199	0	35164	
5200	0	33872	
5201	0	33284	
5202	0	30608	
5203	0	24252	
5204	0	24272	
5205	0	28552	
5206	0	30708	
5207	0	32489	
5208	0	33306	
5209	0	34542	
5210	0	35680	
5211	0	35640	
5212	0	35131	
5213	0	34442	
5214	0	34434	
5215	0	34665	
5216	0	33208	
5217	0	32484	
5218	0	31973	
5219	0	32673	
5220	0	32384	
5221	0	30460	
5222	0	31062	
5223	0	32248	
5224	0	32668	
5225	0	32682	
5226	0	32476	
5227	0	32856	
5228	0	34428	
5229	0	34107	
5230	0	32969	
5231	0	32965	
5232	0	32775	
5233	0	33634	
5234	0	33540	
5235	0	33396	
5236	0	32888	
5237	0	32921	
5238	0	33138	
5239	0	33106	
5240	0	32706	
5241	0	32620	
5242	0	32789	
5243	0	32484	
5244	0	32004	
5245	0	32969	
5246	0	34524	
5247	0	34708	
5248	0	34363	
5249	0	32760	
5250	0	31888	
5251	0	30968	
5252	0	28832	
5253	0	30716	
5254	0	33224	
5255	0	32888	
5256	0	33432	
5257	0	32738	
5258	0	34030	
5259	0	33857	
5260	0	34020	
5261	0	33306	
5262	0	33340	
5263	0	32366	
5264	0	31448	
5265	0	30976	
5266	0	31060	
5267	0	31159	
5268	0	32720	
5269	0	32312	
5270	0	32864	
5271	0	33953	
5272	0	35520	
5273	0	35561	
5274	0	34708	
5275	0	34300	
5276	0	35584	
5277	0	35010	
5278	0	32728	
5279	0	29701	
5280	0	28144	
5281	0	31359	
5282	0	29596	
5283	0	27802	
5284	0	29730	
5285	0	32576	
5286	0	34778	
5287	0	34866	
5288	0	34230	
5289	0	34248	
5290	0	32512	
5291	0	32800	
5292	0	33584	
5293	0	32860	
5294	0	33408	
5295	0	33828	
5296	0	33682	
5297	0	33400	
5298	0	32484	
5299	0	32656	
5300	0	32586	
5301	0	32650	
5302	0	33532	
5303	0	33799	
5304	0	32840	
5305	0	33954	
5306	0	34648	
5307	0	33945	
5308	0	33109	
5309	0	32258	
5310	0	32434	
5311	0	31496	
5312	0	31040	
5313	0	30848	
5314	0	32098	
5315	0	33260	
5316	0	33306	
5317	0	33745	
5318	0	34752	
5319	0	34776	
5320	0	31553	
5321	0	30404	
5322	0	31584	
5323	0	32400	
5324	0	33624	
5325	0	33865	
5326	0	32848	
5327	0	32748	
5328	0	33593	
5329	0	33936	
5330	0	33326	
5331	0	33140	
5332	0	34216	
5333	0	32852	
5334	0	31538	
5335	0	27694	
5336	0	28555	
5337	0	31321	
5338	0	29612	
5339	0	31312	
5340	0	33313	
5341	0	35680	
5342	0	34232	
5343	0	33560	
5344	0	34928	
5345	0	34272	
5346	0	33490	
5347	0	33750	
5348	0	34116	
5349	0	33240	
5350	0	33984	
5351	0	33432	
5352	0	32676	
5353	0	33126	
5354	0	33224	
5355	0	31476	
5356	0	31856	
5357	0	32036	
5358	0	32472	
5359	0	32212	
5360	0	33276	
5361	0	33504	
5362	0	33496	
5363	0	32162	
5364	0	32150	
5365	0	32564	
5366	0	32960	
5367	0	33004	
5368	0	32210	
5369	0	32184	
5370	0	32568	
5371	0	32837	
5372	0	33116	
5373	0	34500	
5374	0	34980	
5375	0	35188	
5376	0	37440	
5377	0	37244	
5378	0	35644	
5379	0	32598	
5380	0	27904	
5381	0	26328	
5382	0	23870	
5383	0	26113	
5384	0	30778	
5385	0	34564	
5386	0	33452	
5387	0	32466	
5388	0	34108	
5389	0	35144	
5390	0	35182	
5391	0	34021	
5392	0	32818	
5393	0	33977	
5394	0	34436	
5395	0	34092	
5396	0	34236	
5397	0	33408	
5398	0	31236	
5399	0	30964	
5400	0	29932	
5401	0	31432	
5402	0	32324	
5403	0	32978	
5404	0	33348	
5405	0	33716	
5406	0	33974	
5407	0	33046	
5408	0	32946	
5409	0	33204	
5410	0	32922	
5411	0	33049	
5412	0	33725	
5413	0	33730	
5414	0	33180	
5415	0	32992	
5416	0	33392	
5417	0	32864	
5418	0	32248	
5419	0	32704	
5420	0	34006	
5421	0	34376	
5422	0	32984	
5423	0	32205	
5424	0	32416	
5425	0	32544	
5426	0	32024	
5427	0	31244	
5428	0	32648	
5429	0	32960	
5430	0	34218	
5431	0	33952	
5432	0	32199	
5433	0	33000	
5434	0	32600	
5435	0	30690	
5436	0	31232	
5437	0	32444	
5438	0	32860	
5439	0	33672	
5440	0	32482	
5441	0	32056	
5442	0	32656	
5443	0	31913	
5444	0	33432	
5445	0	33592	
5446	0	33202	
5447	0	30896	
5448	0	31704	
5449	0	31156	
5450	0	30592	
5451	0	32600	
5452	0	34546	
5453	0	34218	
5454	0	34030	
5455	0	34204	
5456	0	33620	
5457	0	32784	
5458	0	32804	
5459	0	32764	
5460	0	32548	
5461	0	32856	
5462	0	33532	
5463	0	34226	
5464	0	34256	
5465	0	34420	
5466	0	34576	
5467	0	32918	
5468	0	31786	
5469	0	31955	
5470	0	31248	
5471	0	30077	
5472	0	30046	
5473	0	31324	
5474	0	32608	
5475	0	33080	
5476	0	33616	
5477	0	33714	
5478	0	33738	
5479	0	33415	
5480	0	33546	
5481	0	35220	
5482	0	33216	
5483	0	32676	
5484	0	33048	
5485	0	33676	
5486	0	35290	
5487	0	36121	
5488	0	35088	
5489	0	32788	
5490	0	31800	
5491	0	29496	
5492	0	28088	
5493	0	29786	
5494	0	31532	
5495	0	32667	
5496	0	32306	
5497	0	31216	
5498	0	29900	
5499	0	32588	
5500	0	32850	
5501	0	33172	
5502	0	32954	
5503	0	33357	
5504	0	33620	
5505	0	34640	
5506	0	34477	
5507	0	35012	
5508	0	34802	
5509	0	32946	
5510	0	31104	
5511	0	32212	
5512	0	33276	
5513	0	32470	
5514	0	30781	
5515	0	31178	
5516	0	32184	
5517	0	33088	
5518	0	33020	
5519	0	32894	
5520	0	32723	
5521	0	33608	
5522	0	33810	
5523	0	33060	
5524	0	32968	
5525	0	32636	
5526	0	33645	
5527	0	33817	
5528	0	33570	
5529	0	32194	
5530	0	32438	
5531	0	32214	
5532	0	32806	
5533	0	32680	
5534	0	32613	
5535	0	32526	
5536	0	32934	
5537	0	33232	
5538	0	33799	
5539	0	33560	
5540	0	33320	
5541	0	32816	
5542	0	32440	
5543	0	32812	
5544	0	32336	
5545	0	32420	
5546	0	32395	
5547	0	32580	
5548	0	32474	
5549	0	33296	
5550	0	33324	
5551	0	32738	
5552	0	32888	
5553	0	32872	
5554	0	32210	
5555	0	32728	
5556	0	33555	
5557	0	33185	
5558	0	32600	
5559	0	31992	
5560	0	32263	
5561	0	32856	
5562	0	33224	
5563	0	32120	
5564	0	32236	
5565	0	32866	
5566	0	33440	
5567	0	32536	
5568	0	32612	
5569	0	33381	
5570	0	33176	
5571	0	32390	
5572	0	32633	
5573	0	32314	
5574	0	33608	
5575	0	34116	
5576	0	33368	
5577	0	33464	
5578	0	31372	
5579	0	31776	
5580	0	31736	
5581	0	32044	
5582	0	32726	
5583	0	32850	
5584	0	33174	
5585	0	32872	
5586	0	32736	
5587	0	32642	
5588	0	32484	
5589	0	32850	
5590	0	33448	
5591	0	34492	
5592	0	34476	
5593	0	34770	
5594	0	34860	
5595	0	34258	
5596	0	32340	
5597	0	30312	
5598	0	28660	
5599	0	29404	
5600	0	31508	
5601	0	33637	
5602	0	34393	
5603	0	34440	
5604	0	34426	
5605	0	34284	
5606	0	33590	
5607	0	33584	
5608	0	32676	
5609	0	30416	
5610	0	28248	
5611	0	28306	
5612	0	29852	
5613	0	31992	
5614	0	33652	
5615	0	34361	
5616	0	34676	
5617	0	34192	
5618	0	34338	
5619	0	34136	
5620	0	33608	
5621	0	33820	
5622	0	32348	
5623	0	32556	
5624	0	33034	
5625	0	31834	
5626	0	32666	
5627	0	33874	
5628	0	34184	
5629	0	33696	
5630	0	33562	
5631	0	33480	
5632	0	33222	
5633	0	32286	
5634	0	32381	
5635	0	33042	
5636	0	32594	
5637	0	31960	
5638	0	31920	
5639	0	31751	
5640	0	31528	
5641	0	32486	
5642	0	34252	
5643	0	33756	
5644	0	31994	
5645	0	32220	
5646	0	32853	
5647	0	32794	
5648	0	32792	
5649	0	33372	
5650	0	33004	
5651	0	33150	
5652	0	33276	
5653	0	33420	
5654	0	33594	
5655	0	33737	
5656	0	33440	
5657	0	32541	
5658	0	32318	
5659	0	31201	
5660	0	31624	
5661	0	31804	
5662	0	32296	
5663	0	33374	
5664	0	32480	
5665	0	32788	
5666	0	33304	
5667	0	33438	
5668	0	32829	
5669	0	32612	
5670	0	33197	
5671	0	32196	
5672	0	32706	
5673	0	32976	
5674	0	32391	
5675	0	32500	
5676	0	33195	
5677	0	33296	
5678	0	33300	
5679	0	32650	
5680	0	32288	
5681	0	33396	
5682	0	34061	
5683	0	33209	
5684	0	32344	
5685	0	32092	
5686	0	32320	
5687	0	32914	
5688	0	32912	
5689	0	32712	
5690	0	32224	
5691	0	32765	
5692	0	32873	
5693	0	32144	
5694	0	32018	
5695	0	32818	
5696	0	33012	
5697	0	32792	
5698	0	33000	
5699	0	32928	
5700	0	33456	
5701	0	33253	
5702	0	32761	
5703	0	33602	
5704	0	33762	
5705	0	33520	
5706	0	32304	
5707	0	31964	
5708	0	31880	
5709	0	31977	
5710	0	32679	
5711	0	32730	
5712	0	32827	
5713	0	32640	
5714	0	32923	
5715	0	33348	
5716	0	33602	
5717	0	33248	
5718	0	32881	
5719	0	32788	
5720	0	32856	
5721	0	33158	
5722	0	33076	
5723	0	32870	
5724	0	32160	
5725	0	32091	
5726	0	32613	
5727	0	32788	
5728	0	32856	
5729	0	32552	
5730	0	32380	
5731	0	32487	
5732	0	32897	
5733	0	33556	
5734	0	33514	
5735	0	33242	
5736	0	32860	
5737	0	32801	
5738	0	32622	
5739	0	32037	
5740	0	32212	
5741	0	32460	
5742	0	32474	
5743	0	32936	
5744	0	32720	
5745	0	32760	
5746	0	32884	
5747	0	32696	
5748	0	32775	
5749	0	32912	
5750	0	33004	
5751	0	32976	
5752	0	33042	
5753	0	33000	
5754	0	32728	
5755	0	32656	
5756	0	32805	
5757	0	32701	
5758	0	32885	
5759	0	33117	
5760	0	32656	
5761	0	32666	
5762	0	33060	
5763	0	32696	
5764	0	32864	
5765	0	33092	
5766	0	32584	
5767	0	32604	
5768	0	32616	
5769	0	32636	
5770	0	32896	
5771	0	33250	
5772	0	33370	
5773	0	33058	
5774	0	32756	
5775	0	32774	
5776	0	32908	
5777	0	32605	
5778	0	32646	
5779	0	33036	
5780	0	32704	
5781	0	32438	
5782	0	32580	
5783	0	32848	
5784	0	32878	
5785	0	32801	
5786	0	32626	
5787	0	32878	
5788	0	33024	
5789	0	32836	
5790	0	32720	
5791	0	32717	
5792	0	32841	
5793	0	32872	
5794	0	32622	
5795	0	32624	
5796	0	32576	
5797	0	32800	
5798	0	32802	
5799	0	32826	
5800	0	32952	
5801	0	32838	
5802	0	33065	
5803	0	32784	
5804	0	32854	
5805	0	32984	
5806	0	32790	
5807	0	32692	
5808	0	32757	
5809	0	32888	
5810	0	33016	
5811	0	32792	
5812	0	32796	
5813	0	32752	
5814	0	32966	
5815	0	32662	
5816	0	32536	
5817	0	32960	
5818	0	32740	
5819	0	32466	
5820	0	32786	
5821	0	32828	
5822	0	32868	
5823	0	32804	
5824	0	32785	
5825	0	32662	
5826	0	32811	
5827	0	32640	
5828	0	32854	
5829	0	32973	
5830	0	32944	
5831	0	32992	
5832	0	32898	
5833	0	33108	
5834	0	33192	
5835	0	32981	
5836	0	33134	
5837	0	33026	
5838	0	32864	
5839	0	32672	
5840	0	32007	
5841	0	31634	
5842	0	32729	
5843	0	33248	
5844	0	32722	
5845	0	32408	
5846	0	32372	
5847	0	32504	
5848	0	33247	
5849	0	33380	
5850	0	33138	
5851	0	32916	
5852	0	32770	
5853	0	33168	
5854	0	33154	
5855	0	32952	
5856	0	32680	
5857	0	32592	
5858	0	32696	
5859	0	32696	
5860	0	32480	
5861	0	32677	
5862	0	32841	
5863	0	32650	
5864	0	32800	
5865	0	33054	
5866	0	32152	
5867	0	32036	
5868	0	32360	
5869	0	32630	
5870	0	32850	
5871	0	33004	
5872	0	32800	
5873	0	33104	
5874	0	33177	
5875	0	33388	
5876	0	33328	
5877	0	33352	
5878	0	33208	
5879	0	33100	
5880	0	32632	
5881	0	32128	
5882	0	32356	
5883	0	32632	
5884	0	32853	
5885	0	33186	
5886	0	33164	
5887	0	32976	
5888	0	32816	
5889	0	32573	
5890	0	32416	
5891	0	32696	
5892	0	32898	
5893	0	32664	
5894	0	32756	
5895	0	32828	
5896	0	32804	
5897	0	32742	
5898	0	32952	
5899	0	32964	
5900	0	32916	
5901	0	32816	
5902	0	32827	
5903	0	32818	
5904	0	32760	
5905	0	32840	
5906	0	32832	
5907	0	32786	
5908	0	32809	
5909	0	32960	
5910	0	32696	
5911	0	32724	
5912	0	32762	
5913	0	32820	
5914	0	32820	
5915	0	32728	
5916	0	32740	
5917	0	32860	
5918	0	32912	
5919	0	32740	
5920	0	32744	
5921	0	32888	
5922	0	32802	
5923	0	32640	
5924	0	32728	
5925	0	32964	
5926	0	32820	
5927	0	32775	
5928	0	32784	
5929	0	32865	
5930	0	32874	
5931	0	32696	
5932	0	32824	
5933	0	32774	
5934	0	32882	
5935	0	32884	
5936	0	32865	
5937	0	32762	
5938	0	32810	
5939	0	32874	
5940	0	32744	
5941	0	32520	
5942	0	32556	
5943	0	32684	
5944	0	32816	
5945	0	32736	
5946	0	32962	
5947	0	32712	
5948	0	32707	
5949	0	32874	
5950	0	32944	
5951	0	32940	
5952	0	32744	
5953	0	32676	
5954	0	32602	
5955	0	32448	
5956	0	32856	
5957	0	33232	
5958	0	33074	
5959	0	33106	
5960	0	32708	
5961	0	32945	
5962	0	33248	
5963	0	32868	
5964	0	32644	
5965	0	32704	
5966	0	32841	
5967	0	32728	
5968	0	32524	
5969	0	32662	
5970	0	32872	
5971	0	32808	
5972	0	32664	
5973	0	32672	
5974	0	32722	
5975	0	32730	
5976	0	32842	
5977	0	33080	
5978	0	33004	
5979	0	33000	
5980	0	32936	
5981	0	33072	
5982	0	32928	
5983	0	32460	
5984	0	32784	
5985	0	32564	
5986	0	32560	
5987	0	32612	
5988	0	32572	
5989	0	32824	
5990	0	32764	
5991	0	33045	
5992	0	32768	
5993	0	32610	
5994	0	32968	
5995	0	33032	
5996	0	32902	
5997	0	32950	
5998	0	33012	
5999	0	32964	
6000	0	32856	
6001	0	32962	
6002	0	32760	
6003	0	32854	
6004	0	32624	
6005	0	32440	
6006	0	32674	
6007	0	32904	
6008	0	32352	
6009	0	32472	
6010	0	32706	
6011	0	32698	
6012	0	32928	
6013	0	32868	
6014	0	32928	
6015	0	33036	
6016	0	33016	
6017	0	33017	
6018	0	33064	
6019	0	32518	
6020	0	32476	
6021	0	32448	
6022	0	32496	
6023	0	32692	
6024	0	32589	
6025	0	32674	
6026	0	33438	
6027	0	33449	
6028	0	33360	
6029	0	33286	
6030	0	32850	
6031	0	32668	
6032	0	32618	
6033	0	32592	
6034	0	32704	
6035	0	32828	
6036	0	32750	
6037	0	32696	
6038	0	32666	
6039	0	32634	
6040	0	32722	
6041	0	32784	
6042	0	32774	
6043	0	32878	
6044	0	32756	
6045	0	32786	
6046	0	32874	
6047	0	32848	
6048	0	32922	
6049	0	33054	
6050	0	32948	
6051	0	32880	
6052	0	32770	
6053	0	32700	
6054	0	32672	
6055	0	32827	
6056	0	32742	
6057	0	32588	
6058	0	32584	
6059	0	32714	
6060	0	32878	
6061	0	32946	
6062	0	32730	
6063	0	32584	
6064	0	32848	
6065	0	32900	
6066	0	32950	
6067	0	33102	
6068	0	32864	
6069	0	32710	
6070	0	32596	
6071	0	32784	
6072	0	32804	
6073	0	32804	
6074	0	32738	
6075	0	32758	
6076	0	32816	
6077	0	32840	
6078	0	32941	
6079	0	32866	
6080	0	32552	
6081	0	32761	
6082	0	32998	
6083	0	32764	
6084	0	32594	
6085	0	32380	
6086	0	32712	
6087	0	32947	
6088	0	32836	
6089	0	32796	
6090	0	33082	
6091	0	32916	
6092	0	32592	
6093	0	32988	
6094	0	32873	
6095	0	32869	
6096	0	33064	
6097	0	33188	
6098	0	33104	
6099	0	32844	
6100	0	32724	
6101	0	32795	
6102	0	32666	
6103	0	32714	
6104	0	32848	
6105	0	32690	
6106	0	32572	
6107	0	32584	
6108	0	32892	
6109	0	32901	
6110	0	32700	
6111	0	32568	
6112	0	32616	
6113	0	32612	
6114	0	32674	
6115	0	32828	
6116	0	33018	
6117	0	33074	
6118	0	33121	
6119	0	33010	
6120	0	32916	
6121	0	32868	
6122	0	32736	
6123	0	32960	
6124	0	32432	
6125	0	32622	
6126	0	32544	
6127	0	32622	
6128	0	32775	
6129	0	33088	
6130	0	33014	
6131	0	32714	
6132	0	32801	
6133	0	32974	
6134	0	33108	
6135	0	33088	
6136	0	32821	
6137	0	32838	
6138	0	32734	
6139	0	32688	
6140	0	32636	
6141	0	32706	
6142	0	32714	
6143	0	32667	
6144	0	32728	
6145	0	32640	
6146	0	32652	
6147	0	32690	
6148	0	32750	
6149	0	32706	
6150	0	32800	
6151	0	32918	
6152	0	32942	
6153	0	33176	
6154	0	32602	
6155	0	32768	
6156	0	32786	
6157	0	32810	
6158	0	32809	
6159	0	32920	
6160	0	32716	
6161	0	32844	
6162	0	32582	
6163	0	32720	
6164	0	32938	
6165	0	32800	
6166	0	32816	
6167	0	32992	
6168	0	32912	
6169	0	32828	
6170	0	32860	
6171	0	32772	
6172	0	32864	
6173	0	32728	
6174	0	32594	
6175	0	32761	
6176	0	32886	
6177	0	32894	
6178	0	33104	
6179	0	33440	
6180	0	32448	
6181	0	32352	
6182	0	32372	
6183	0	32980	
6184	0	32834	
6185	0	32562	
6186	0	32552	
6187	0	32680	
6188	0	32816	
6189	0	32844	
6190	0	32826	
6191	0	32886	
6192	0	32854	
6193	0	33058	
6194	0	33082	
6195	0	32832	
6196	0	32834	
6197	0	32816	
6198	0	32706	
6199	0	32800	
6200	0	32724	
6201	0	32632	
6202	0	32592	
6203	0	32676	
6204	0	32994	
6205	0	32928	
6206	0	32868	
6207	0	33184	
6208	0	33106	
6209	0	32926	
6210	0	32880	
6211	0	32788	
6212	0	32699	
6213	0	32646	
6214	0	32732	
6215	0	32816	
6216	0	32836	
6217	0	32848	
6218	0	32756	
6219	0	32722	
6220	0	32796	
6221	0	32684	
6222	0	32795	
6223	0	32830	
6224	0	32706	
6225	0	32548	
6226	0	32583	
6227	0	32711	
6228	0	32604	
6229	0	32841	
6230	0	32895	
6231	0	32896	
6232	0	32980	
6233	0	33084	
6234	0	33068	
6235	0	32837	
6236	0	32760	
6237	0	32856	
6238	0	32804	
6239	0	32720	
6240	0	32745	
6241	0	32816	
6242	0	32824	
6243	0	32819	
6244	0	32861	
6245	0	32736	
6246	0	32723	
6247	0	32846	
6248	0	32829	
6249	0	32775	
6250	0	32784	
6251	0	32768	
6252	0	32892	
6253	0	32808	
6254	0	32724	
6255	0	32640	
6256	0	32628	
6257	0	32923	
6258	0	32728	
6259	0	32737	
6260	0	32832	
6261	0	32720	
6262	0	32857	
6263	0	33104	
6264	0	33168	
6265	0	32920	
6266	0	32802	
6267	0	32824	
6268	0	32860	
6269	0	32856	
6270	0	32818	
6271	0	32724	
6272	0	32692	
6273	0	32632	
6274	0	32686	
6275	0	32752	
6276	0	32838	
6277	0	32974	
6278	0	33016	
6279	0	32612	
6280	0	32416	
6281	0	32612	
6282	0	32800	
6283	0	32868	
6284	0	32870	
6285	0	32676	
6286	0	32580	
6287	0	32864	
6288	0	33122	
6289	0	32774	
6290	0	32632	
6291	0	32808	
6292	0	32816	
6293	0	32964	
6294	0	33148	
6295	0	33096	
6296	0	32908	
6297	0	32598	
6298	0	32612	
6299	0	32704	
6300	0	32796	
6301	0	32806	
6302	0	32828	
6303	0	32740	
6304	0	32732	
6305	0	32853	
6306	0	32746	
6307	0	32784	
6308	0	32775	
6309	0	32800	
6310	0	32822	
6311	0	32772	
6312	0	32757	
6313	0	32556	
6314	0	32654	
6315	0	32677	
6316	0	32764	
6317	0	32932	
6318	0	33168	
6319	0	33000	
6320	0	32950	
6321	0	32828	
6322	0	32668	
6323	0	32716	
6324	0	32768	
6325	0	32728	
6326	0	32784	
6327	0	33107	
6328	0	32861	
6329	0	32860	
6330	0	32967	
6331	0	32884	
6332	0	32770	
6333	0	32786	
6334	0	32752	
6335	0	32833	
6336	0	32740	
6337	0	32633	
6338	0	32707	
6339	0	32771	
6340	0	32792	
6341	0	32768	
6342	0	32856	
6343	0	32716	
6344	0	32750	
6345	0	32752	
6346	0	32835	
6347	0	32793	
6348	0	32864	
6349	0	32918	
6350	0	32856	
6351	0	32828	
6352	0	32749	
6353	0	32652	
6354	0	32770	
6355	0	33176	
6356	0	32955	
6357	0	32529	
6358	0	32732	
6359	0	32802	
6360	0	32885	
6361	0	32829	
6362	0	32709	
6363	0	32680	
6364	0	32736	
6365	0	32808	
6366	0	32832	
6367	0	32775	
6368	0	32690	
6369	0	32980	
6370	0	32992	
6371	0	32923	
6372	0	32864	
6373	0	32839	
6374	0	32908	
6375	0	32633	
6376	0	32617	
6377	0	32936	
6378	0	32730	
6379	0	32736	
6380	0	32852	
6381	0	32846	
6382	0	32816	
6383	0	32656	
6384	0	32620	
6385	0	32833	
6386	0	32768	
6387	0	32918	
6388	0	32844	
6389	0	32616	
6390	0	32722	
6391	0	32852	
6392	0	32775	
6393	0	32786	
6394	0	33286	
6395	0	32957	
6396	0	32704	
6397	0	32792	
6398	0	32832	
6399	0	32824	
6400	0	32825	
6401	0	32690	
6402	0	32649	
6403	0	32712	
6404	0	32824	
6405	0	32876	
6406	0	32876	
6407	0	32916	
6408	0	32844	
6409	0	32688	
6410	0	32802	
6411	0	32800	
6412	0	32852	
6413	0	32804	
6414	0	32820	
6415	0	32860	
6416	0	32824	
6417	0	32896	
6418	0	32640	
6419	0	32791	
6420	0	33224	
6421	0	32916	
6422	0	32389	
6423	0	32636	
6424	0	32742	
6425	0	32864	
6426	0	32638	
6427	0	32768	
6428	0	32872	
6429	0	32880	
6430	0	32984	
6431	0	33106	
6432	0	32628	
6433	0	32612	
6434	0	32628	
6435	0	32718	
6436	0	32989	
6437	0	32720	
6438	0	32768	
6439	0	32985	
6440	0	32489	
6441	0	32930	
6442	0	33164	
6443	0	32992	
6444	0	32832	
6445	0	32642	
6446	0	32748	
6447	0	32774	
6448	0	32852	
6449	0	32950	
6450	0	32824	
6451	0	32698	
6452	0	32704	
6453	0	33005	
6454	0	32780	
6455	0	32784	
6456	0	32775	
6457	0	32710	
6458	0	32775	
6459	0	32712	
6460	0	32745	
6461	0	32736	
6462	0	32819	
6463	0	32752	
6464	0	32846	
6465	0	32861	
6466	0	32848	
6467	0	32808	
6468	0	32825	
6469	0	32786	
6470	0	32808	
6471	0	32824	
6472	0	32993	
6473	0	33188	
6474	0	33042	
6475	0	32208	
6476	0	32272	
6477	0	32516	
6478	0	32714	
6479	0	32820	
6480	0	32680	
6481	0	32844	
6482	0	33035	
6483	0	33192	
6484	0	33122	
6485	0	32988	
6486	0	32956	
6487	0	32888	
6488	0	32844	
6489	0	32666	
6490	0	32794	
6491	0	32832	
6492	0	32740	
6493	0	32715	
6494	0	32748	
6495	0	32714	
6496	0	32762	
6497	0	32837	
6498	0	32709	
6499	0	32765	
6500	0	32824	
6501	0	32832	
6502	0	32690	
6503	0	32775	
6504	0	32804	
6505	0	32756	
6506	0	32832	
6507	0	32809	
6508	0	32786	
6509	0	32925	
6510	0	32808	
6511	0	32782	
6512	0	32816	
6513	0	32775	
6514	0	32858	
6515	0	32888	
6516	0	32841	
6517	0	32857	
6518	0	32809	
6519	0	32812	
6520	0	32832	
6521	0	32736	
6522	0	33008	
6523	0	33060	
6524	0	32489	
6525	0	32576	
6526	0	33078	
6527	0	32844	
6528	0	32504	
6529	0	32940	
6530	0	32837	
6531	0	32314	
6532	0	32730	
6533	0	33029	
6534	0	32536	
6535	0	32536	
6536	0	32880	
6537	0	32866	
6538	0	32808	
6539	0	32834	
6540	0	32860	
6541	0	32652	
6542	0	32808	
6543	0	32925	
6544	0	32925	
6545	0	32852	
6546	0	32890	
6547	0	32833	
6548	0	32785	
6549	0	32800	
6550	0	32811	
6551	0	32910	
6552	0	32843	
6553	0	32864	
6554	0	32774	
6555	0	32800	
6556	0	32812	
6557	0	32808	
6558	0	32808	
6559	0	32745	
6560	0	32832	
6561	0	32904	
6562	0	32828	
6563	0	32714	
6564	0	32696	
6565	0	32738	
6566	0	32762	
6567	0	32941	
6568	0	32843	
6569	0	32809	
6570	0	32903	
6571	0	32775	
6572	0	32686	
6573	0	32808	
6574	0	32701	
6575	0	32825	
6576	0	32832	
6577	0	33128	
6578	0	32928	
6579	0	32787	
6580	0	32668	
6581	0	32504	
6582	0	32846	
6583	0	32808	
6584	0	32788	
6585	0	32730	
6586	0	32646	
6587	0	32628	
6588	0	32696	
6589	0	32736	
6590	0	32938	
6591	0	32895	
6592	0	32755	
6593	0	32681	
6594	0	32903	
6595	0	32932	
6596	0	32936	
6597	0	32944	
6598	0	32824	
6599	0	32708	
6600	0	32690	
6601	0	32898	
6602	0	32756	
6603	0	32844	
6604	0	32923	
6605	0	32850	
6606	0	32810	
6607	0	32768	
6608	0	32769	
6609	0	32790	
6610	0	32784	
6611	0	32804	
6612	0	32824	
6613	0	32752	
6614	0	32786	
6615	0	32748	
6616	0	32712	
6617	0	32800	
6618	0	32834	
6619	0	32852	
6620	0	32872	
6621	0	32824	
6622	0	32851	
6623	0	32747	
6624	0	32775	
6625	0	32860	
6626	0	32788	
6627	0	32744	
6628	0	32788	
6629	0	33098	
6630	0	32816	
6631	0	32454	
6632	0	32992	
6633	0	32775	
6634	0	32905	
6635	0	32684	
6636	0	32800	
6637	0	32844	
6638	0	32464	
6639	0	32699	
6640	0	32966	
6641	0	32956	
6642	0	32553	
6643	0	32740	
6644	0	33033	
6645	0	32832	
6646	0	32768	
6647	0	32762	
6648	0	32768	
6649	0	32858	
6650	0	32928	
6651	0	32865	
6652	0	32824	
6653	0	32714	
6654	0	32872	
6655	0	32802	
6656	0	32690	
6657	0	32906	
6658	0	32885	
6659	0	32797	
6660	0	32864	
6661	0	32836	
6662	0	32768	
6663	0	32816	
6664	0	32735	
6665	0	32744	
6666	0	32763	
6667	0	32678	
6668	0	32922	
6669	0	32952	
6670	0	32900	
6671	0	33028	
6672	0	32888	
6673	0	33057	
6674	0	32792	
6675	0	32700	
6676	0	32701	
6677	0	32696	
6678	0	32792	
6679	0	32932	
6680	0	32910	
6681	0	32512	
6682	0	32544	
6683	0	32724	
6684	0	32793	
6685	0	32775	
6686	0	32762	
6687	0	32904	
6688	0	32861	
6689	0	32878	
6690	0	32872	
6691	0	32845	
6692	0	32808	
6693	0	32938	
6694	0	32852	
6695	0	32685	
6696	0	32793	
6697	0	32806	
6698	0	32836	
6699	0	32816	
6700	0	32828	
6701	0	32815	
6702	0	32764	
6703	0	32764	
6704	0	32752	
6705	0	32840	
6706	0	32834	
6707	0	32870	
6708	0	32768	
6709	0	32864	
6710	0	32970	
6711	0	32940	
6712	0	32792	
6713	0	32548	
6714	0	32785	
6715	0	32930	
6716	0	32768	
6717	0	32712	
6718	0	32720	
6719	0	32884	
6720	0	33034	
6721	0	32736	
6722	0	32672	
6723	0	32620	
6724	0	32748	
6725	0	32826	
6726	0	32772	
6727	0	32732	
6728	0	32774	
6729	0	32839	
6730	0	32832	
6731	0	32824	
6732	0	32952	
6733	0	32828	
6734	0	32760	
6735	0	32761	
6736	0	32752	
6737	0	32784	
6738	0	32840	
6739	0	32772	
6740	0	32811	
6741	0	32816	
6742	0	32814	
6743	0	32796	
6744	0	32774	
6745	0	32796	
6746	0	32834	
6747	0	32922	
6748	0	32885	
6749	0	32788	
6750	0	32792	
6751	0	32797	
6752	0	32713	
6753	0	32736	
6754	0	32744	
6755	0	32840	
6756	0	32934	
6757	0	32828	
6758	0	32728	
6759	0	32848	
6760	0	32897	
6761	0	32612	
6762	0	32736	
6763	0	32894	
6764	0	32844	
6765	0	32756	
6766	0	32775	
6767	0	32838	
6768	0	32834	
6769	0	32804	
6770	0	32784	
6771	0	32832	
6772	0	32816	
6773	0	32878	
6774	0	32746	
6775	0	32710	
6776	0	32922	
6777	0	32988	
6778	0	32710	
6779	0	32708	
6780	0	32690	
6781	0	32688	
6782	0	32920	
6783	0	32916	
6784	0	32835	
6785	0	32756	
6786	0	32800	
6787	0	32946	
6788	0	32860	
6789	0	32745	
6790	0	32768	
6791	0	32784	
6792	0	32792	
6793	0	32828	
6794	0	32771	
6795	0	32878	
6796	0	32880	
6797	0	32775	
6798	0	32850	
6799	0	32856	
6800	0	32813	
6801	0	32808	
6802	0	32793	
6803	0	32823	
6804	0	32768	
6805	0	32800	
6806	0	32836	
6807	0	32824	
6808	0	32778	
6809	0	32716	
6810	0	32730	
6811	0	33092	
6812	0	33026	
6813	0	32788	
6814	0	32816	
6815	0	32671	
6816	0	32708	
6817	0	32680	
6818	0	32760	
6819	0	32802	
6820	0	32786	
6821	0	32786	
6822	0	32762	
6823	0	32809	
6824	0	32784	
6825	0	32760	
6826	0	32878	
6827	0	32768	
6828	0	32801	
6829	0	32788	
6830	0	32856	
6831	0	32900	
6832	0	32932	
6833	0	32832	
6834	0	32656	
6835	0	32744	
6836	0	32814	
6837	0	32896	
6838	0	32836	
6839	0	32904	
6840	0	32889	
6841	0	32792	
6842	0	32688	
6843	0	32692	
6844	0	32758	
6845	0	32820	
6846	0	32771	
6847	0	32884	
6848	0	32848	
6849	0	32784	
6850	0	32636	
6851	0	32796	
6852	0	32884	
6853	0	32812	
6854	0	32740	
6855	0	32884	
6856	0	32960	
6857	0	33138	
6858	0	32666	
6859	0	32608	
6860	0	32728	
6861	0	32744	
6862	0	32784	
6863	0	32544	
6864	0	32837	
6865	0	32912	
6866	0	32800	
6867	0	32560	
6868	0	32647	
6869	0	32816	
6870	0	33049	
6871	0	32962	
6872	0	32893	
6873	0	32758	
6874	0	32792	
6875	0	32800	
6876	0	32888	
6877	0	32898	
6878	0	32736	
6879	0	32696	
6880	0	32946	
6881	0	32984	
6882	0	32648	
6883	0	32768	
6884	0	32820	
6885	0	32796	
6886	0	32841	
6887	0	32904	
6888	0	32925	
6889	0	32828	
6890	0	32643	
6891	0	32683	
6892	0	32812	
6893	0	32868	
6894	0	32826	
6895	0	32860	
6896	0	32967	
6897	0	32832	
6898	0	32635	
6899	0	32742	
6900	0	32816	
6901	0	32834	
6902	0	32784	
6903	0	32710	
6904	0	32775	
6905	0	32948	
6906	0	32835	
6907	0	32732	
6908	0	32762	
6909	0	32712	
6910	0	32775	
6911	0	32880	
6912	0	32825	
6913	0	32752	
6914	0	32896	
6915	0	32890	
6916	0	32885	
6917	0	32785	
6918	0	32774	
6919	0	32784	
6920	0	32740	
6921	0	32928	
6922	0	32866	
6923	0	32718	
6924	0	32566	
6925	0	32589	
6926	0	32756	
6927	0	32846	
6928	0	32866	
6929	0	32916	
6930	0	32784	
6931	0	32812	
6932	0	33072	
6933	0	32936	
6934	0	32850	
6935	0	32770	
6936	0	32832	
6937	0	32864	
6938	0	32768	
6939	0	32809	
6940	0	32774	
6941	0	32792	
6942	0	32664	
6943	0	32592	
6944	0	32733	
6945	0	33390	
6946	0	32660	
6947	0	32552	
6948	0	32785	
6949	0	32845	
6950	0	32852	
6951	0	32865	
6952	0	32800	
6953	0	32818	
6954	0	32742	
6955	0	32648	
6956	0	32724	
6957	0	32774	
6958	0	32818	
6959	0	32841	
6960	0	32864	
6961	0	32992	
6962	0	32868	
6963	0	32694	
6964	0	32762	
6965	0	32868	
6966	0	32824	
6967	0	32811	
6968	0	32824	
6969	0	32796	
6970	0	32867	
6971	0	32888	
6972	0	32850	
6973	0	32808	
6974	0	32728	
6975	0	32827	
6976	0	32850	
6977	0	32861	
6978	0	32796	
6979	0	32828	
6980	0	32748	
6981	0	32944	
6982	0	32606	
6983	0	32691	
6984	0	32772	
6985	0	32728	
6986	0	32892	
6987	0	32624	
6988	0	32672	
6989	0	32748	
6990	0	32793	
6991	0	32950	
6992	0	32888	
6993	0	32920	
6994	0	32933	
6995	0	32804	
6996	0	32708	
6997	0	32734	
6998	0	32856	
6999	0	32840	
7000	0	32806	
7001	0	32836	
7002	0	32866	
7003	0	32827	
7004	0	32777	
7005	0	32712	
7006	0	32757	
7007	0	32792	
7008	0	32866	
7009	0	32592	
7010	0	32752	
7011	0	32856	
7012	0	32946	
7013	0	32847	
7014	0	32765	
7015	0	32868	
7016	0	32946	
7017	0	32402	
7018	0	32792	
7019	0	32946	
7020	0	32832	
7021	0	32745	
7022	0	32720	
7023	0	32746	
7024	0	32786	
7025	0	32874	
7026	0	32864	
7027	0	32859	
7028	0	32848	
7029	0	32836	
7030	0	32788	
7031	0	32844	
7032	0	32850	
7033	0	32652	
7034	0	32710	
7035	0	32880	
7036	0	32802	
7037	0	32752	
7038	0	32784	
7039	0	32784	
7040	0	32808	
7041	0	32908	
7042	0	32745	
7043	0	32808	
7044	0	32948	
7045	0	32816	
7046	0	32882	
7047	0	32836	
7048	0	32509	
7049	0	32740	
7050	0	32804	
7051	0	32827	
7052	0	32903	
7053	0	32768	
7054	0	32813	
7055	0	32915	
7056	0	32699	
7057	0	32774	
7058	0	32838	
7059	0	32792	
7060	0	32805	
7061	0	32784	
7062	0	33022	
7063	0	32732	
7064	0	32544	
7065	0	32817	
7066	0	32914	
7067	0	32836	
7068	0	32848	
7069	0	32737	
7070	0	32570	
7071	0	32848	
7072	0	32932	
7073	0	32905	
7074	0	32878	
7075	0	32802	
7076	0	32740	
7077	0	32868	
7078	0	32822	
7079	0	32752	
7080	0	32792	
7081	0	32688	
7082	0	32775	
7083	0	32752	
7084	0	32818	
7085	0	32940	
7086	0	33021	
7087	0	32786	
7088	0	32672	
7089	0	32775	
7090	0	32837	
7091	0	32996	
7092	0	32968	
7093	0	32872	
7094	0	32450	
7095	0	32582	
7096	0	32754	
7097	0	32920	
7098	0	32984	
7099	0	32800	
7100	0	32722	
7101	0	32752	
7102	0	32616	
7103	0	32628	
7104	0	32908	
7105	0	32858	
7106	0	32804	
7107	0	32826	
7108	0	32698	
7109	0	33081	
7110	0	32936	
7111	0	32820	
7112	0	32690	
7113	0	32824	
7114	0	32828	
7115	0	32978	
7116	0	32826	
7117	0	32746	
7118	0	32804	
7119	0	32563	
7120	0	32568	
7121	0	32884	
7122	0	32923	
7123	0	32824	
7124	0	32736	
7125	0	32804	
7126	0	32775	
7127	0	32775	
7128	0	32740	
7129	0	32793	
7130	0	32957	
7131	0	32920	
7132	0	32722	
7133	0	32896	
7134	0	32840	
7135	0	32775	
7136	0	32804	
7137	0	32850	
7138	0	32628	
7139	0	32744	
7140	0	32816	
7141	0	32833	
7142	0	32770	
7143	0	32824	
7144	0	32809	
7145	0	32768	
7146	0	32858	
7147	0	32824	
7148	0	32810	
7149	0	32864	
7150	0	32766	
7151	0	32825	
7152	0	32852	
7153	0	32865	
7154	0	32768	
7155	0	32635	
7156	0	32879	
7157	0	32912	
7158	0	32809	
7159	0	32800	
7160	0	32800	
7161	0	32788	
7162	0	32720	
7163	0	32710	
7164	0	32760	
7165	0	32936	
7166	0	32948	
7167	0	32696	
7168	0	32672	
7169	0	32887	
7170	0	32808	
7171	0	32836	
7172	0	32756	
7173	0	32792	
7174	0	32860	
7175	0	32816	
7176	0	32724	
7177	0	32770	
7178	0	32876	
7179	0	32964	
7180	0	32840	
7181	0	32960	
7182	0	32718	
7183	0	32520	
7184	0	32746	
7185	0	32732	
7186	0	32786	
7187	0	32914	
7188	0	32878	
7189	0	32857	
7190	0	32773	
7191	0	32840	
7192	0	32808	
7193	0	32836	
7194	0	32723	
7195	0	32772	
7196	0	32728	
7197	0	32818	
7198	0	32765	
7199	0	32892	
7200	0	32874	
7201	0	32857	
7202	0	32796	
7203	0	33208	
7204	0	32388	
7205	0	32523	
7206	0	32820	
7207	0	32968	
7208	0	33000	
7209	0	32762	
7210	0	32660	
7211	0	32760	
7212	0	32816	
7213	0	32824	
7214	0	32875	
7215	0	32594	
7216	0	32712	
7217	0	32819	
7218	0	32838	
7219	0	32887	
7220	0	32824	
7221	0	32833	
7222	0	32868	
7223	0	32844	
7224	0	32794	
7225	0	32799	
7226	0	32712	
7227	0	32844	
7228	0	32868	
7229	0	32722	
7230	0	32752	
7231	0	32817	
7232	0	32801	
7233	0	32752	
7234	0	32952	
7235	0	32948	
7236	0	32820	
7237	0	32688	
7238	0	32980	
7239	0	32864	
7240	0	32561	
7241	0	32616	
7242	0	32704	
7243	0	32690	
7244	0	32880	
7245	0	32888	
7246	0	32856	
7247	0	32898	
7248	0	32872	
7249	0	32788	
7250	0	32768	
7251	0	32752	
7252	0	32720	
7253	0	32813	
7254	0	32852	
7255	0	32800	
7256	0	32775	
7257	0	32804	
7258	0	32775	
7259	0	32800	
7260	0	32808	
7261	0	32856	
7262	0	32856	
7263	0	32824	
7264	0	32832	
7265	0	32800	
7266	0	32876	
7267	0	32832	
7268	0	32840	
7269	0	32696	
7270	0	32684	
7271	0	32684	
7272	0	32832	
7273	0	32808	
7274	0	32846	
7275	0	32872	
7276	0	32919	
7277	0	32760	
7278	0	32760	
7279	0	32784	
7280	0	33030	
7281	0	33053	
7282	0	32796	
7283	0	32817	
7284	0	33044	
7285	0	32570	
7286	0	32310	
7287	0	32656	
7288	0	32795	
7289	0	33130	
7290	0	32642	
7291	0	32816	
7292	0	33076	
7293	0	32544	
7294	0	32788	
7295	0	32914	
7296	0	32668	
7297	0	32614	
7298	0	32802	
7299	0	32838	
7300	0	32794	
7301	0	32850	
7302	0	32810	
7303	0	32758	
7304	0	32858	
7305	0	32940	
7306	0	32832	
7307	0	32872	
7308	0	32837	
7309	0	32844	
7310	0	32771	
7311	0	32720	
7312	0	32696	
7313	0	32968	
7314	0	32816	
7315	0	32848	
7316	0	32856	
7317	0	32832	
7318	0	32785	
7319	0	32892	
7320	0	32768	
7321	0	32856	
7322	0	32828	
7323	0	32802	
7324	0	32745	
7325	0	32696	
7326	0	32770	
7327	0	32932	
7328	0	32948	
7329	0	33032	
7330	0	32808	
7331	0	32644	
7332	0	32760	
7333	0	32775	
7334	0	32570	
7335	0	32663	
7336	0	32534	
7337	0	32576	
7338	0	32825	
7339	0	32921	
7340	0	33008	
7341	0	32964	
7342	0	32747	
7343	0	32775	
7344	0	32818	
7345	0	32792	
7346	0	32845	
7347	0	32793	
7348	0	32867	
7349	0	32852	
7350	0	32854	
7351	0	32840	
7352	0	32834	
7353	0	32880	
7354	0	32792	
7355	0	32808	
7356	0	32768	
7357	0	32877	
7358	0	32834	
7359	0	32784	
7360	0	32752	
7361	0	32870	
7362	0	32870	
7363	0	32616	
7364	0	32775	
7365	0	32850	
7366	0	32774	
7367	0	32620	
7368	0	32736	
7369	0	32896	
7370	0	32834	
7371	0	32858	
7372	0	32866	
7373	0	32920	
7374	0	32826	
7375	0	32733	
7376	0	32768	
7377	0	32840	
7378	0	32818	
7379	0	32716	
7380	0	32826	
7381	0	32805	
7382	0	32814	
7383	0	32876	
7384	0	32864	
7385	0	32808	
7386	0	32804	
7387	0	32752	
7388	0	32711	
7389	0	32840	
7390	0	32872	
7391	0	32856	
7392	0	32948	
7393	0	32876	
7394	0	32936	
7395	0	32808	
7396	0	32584	
7397	0	32837	
7398	0	32725	
7399	0	32664	
7400	0	32736	
7401	0	33032	
7402	0	32876	
7403	0	32634	
7404	0	32681	
7405	0	32772	
7406	0	32960	
7407	0	32526	
7408	0	32834	
7409	0	33028	
7410	0	32827	
7411	0	32813	
7412	0	32775	
7413	0	32813	
7414	0	32804	
7415	0	32866	
7416	0	32808	
7417	0	32804	
7418	0	32792	
7419	0	32836	
7420	0	32824	
7421	0	32792	
7422	0	32768	
7423	0	32848	
7424	0	32821	
7425	0	32804	
7426	0	32864	
7427	0	32952	
7428	0	32728	
7429	0	32781	
7430	0	32847	
7431	0	32816	
7432	0	32832	
7433	0	32790	
7434	0	32800	
7435	0	32700	
7436	0	32690	
7437	0	32731	
7438	0	32883	
7439	0	32786	
7440	0	32728	
7441	0	32856	
7442	0	32891	
7443	0	32877	
7444	0	32722	
7445	0	32720	
7446	0	32829	
7447	0	32804	
7448	0	32848	
7449	0	32827	
7450	0	32676	
7451	0	32698	
7452	0	32848	
7453	0	32785	
7454	0	32737	
7455	0	32827	
7456	0	32912	
7457	0	33000	
7458	0	32888	
7459	0	32872	
7460	0	32904	
7461	0	32937	
7462	0	32850	
7463	0	32820	
7464	0	32760	
7465	0	32626	
7466	0	32612	
7467	0	32647	
7468	0	32672	
7469	0	32699	
7470	0	32816	
7471	0	32808	
7472	0	32794	
7473	0	32724	
7474	0	32712	
7475	0	32840	
7476	0	32994	
7477	0	33036	
7478	0	33011	
7479	0	33080	
7480	0	32978	
7481	0	32762	
7482	0	32680	
7483	0	32696	
7484	0	32699	
7485	0	32775	
7486	0	32737	
7487	0	32764	
7488	0	32772	
7489	0	32760	
7490	0	32796	
7491	0	32800	
7492	0	32802	
7493	0	32800	
7494	0	32868	
7495	0	32622	
7496	0	32904	
7497	0	33066	
7498	0	32838	
7499	0	32704	
7500	0	32720	
7501	0	32757	
7502	0	32768	
7503	0	32764	
7504	0	32837	
7505	0	32886	
7506	0	32774	
7507	0	32798	
7508	0	32712	
7509	0	32592	
7510	0	32573	
7511	0	32642	
7512	0	32746	
7513	0	33016	
7514	0	33204	
7515	0	33256	
7516	0	33070	
7517	0	32864	
7518	0	32704	
7519	0	32656	
7520	0	32728	
7521	0	32760	
7522	0	32948	
7523	0	32928	
7524	0	32826	
7525	0	32698	
7526	0	32690	
7527	0	32756	
7528	0	32644	
7529	0	32676	
7530	0	32857	
7531	0	32848	
7532	0	32700	
7533	0	32644	
7534	0	32752	
7535	0	32832	
7536	0	32772	
7537	0	32736	
7538	0	32794	
7539	0	32880	
7540	0	32844	
7541	0	32922	
7542	0	32658	
7543	0	32496	
7544	0	32864	
7545	0	33122	
7546	0	33108	
7547	0	32992	
7548	0	32838	
7549	0	32882	
7550	0	32888	
7551	0	32784	
7552	0	32760	
7553	0	32724	
7554	0	32752	
7555	0	32714	
7556	0	32647	
7557	0	32700	
7558	0	32882	
7559	0	32677	
7560	0	32880	
7561	0	32653	
7562	0	32736	
7563	0	32872	
7564	0	32925	
7565	0	32816	
7566	0	32808	
7567	0	32704	
7568	0	32694	
7569	0	32775	
7570	0	32864	
7571	0	33068	
7572	0	33252	
7573	0	32952	
7574	0	32824	
7575	0	32756	
7576	0	32762	
7577	0	32692	
7578	0	32637	
7579	0	32728	
7580	0	32804	
7581	0	32889	
7582	0	32808	
7583	0	32768	
7584	0	32784	
7585	0	32816	
7586	0	32848	
7587	0	32820	
7588	0	32676	
7589	0	32768	
7590	0	32897	
7591	0	32861	
7592	0	32840	
7593	0	32752	
7594	0	32742	
7595	0	32673	
7596	0	32839	
7597	0	32918	
7598	0	32590	
7599	0	32956	
7600	0	33146	
7601	0	33012	
7602	0	32889	
7603	0	32816	
7604	0	32756	
7605	0	32752	
7606	0	32736	
7607	0	32391	
7608	0	32380	
7609	0	32788	
7610	0	32968	
7611	0	33006	
7612	0	33094	
7613	0	33108	
7614	0	32908	
7615	0	32856	
7616	0	32586	
7617	0	32460	
7618	0	32452	
7619	0	32626	
7620	0	32592	
7621	0	32824	
7622	0	32868	
7623	0	32864	
7624	0	32797	
7625	0	32702	
7626	0	32784	
7627	0	32549	
7628	0	32552	
7629	0	32665	
7630	0	32844	
7631	0	33192	
7632	0	33394	
7633	0	33390	
7634	0	33104	
7635	0	32996	
7636	0	32903	
7637	0	32825	
7638	0	32968	
7639	0	33010	
7640	0	32162	
7641	0	32031	
7642	0	32566	
7643	0	32692	
7644	0	32804	
7645	0	32965	
7646	0	32810	
7647	0	32588	
7648	0	32512	
7649	0	32742	
7650	0	32808	
7651	0	32836	
7652	0	32824	
7653	0	32931	
7654	0	33240	
7655	0	33364	
7656	0	33138	
7657	0	33312	
7658	0	33406	
7659	0	33121	
7660	0	33118	
7661	0	32784	
7662	0	32032	
7663	0	32324	
7664	0	32334	
7665	0	32208	
7666	0	32468	
7667	0	32270	
7668	0	32178	
7669	0	32068	
7670	0	32638	
7671	0	32996	
7672	0	32888	
7673	0	32671	
7674	0	32708	
7675	0	32788	
7676	0	32992	
7677	0	32974	
7678	0	33371	
7679	0	33448	
7680	0	33866	
7681	0	33549	
7682	0	33040	
7683	0	33106	
7684	0	32968	
7685	0	32745	
7686	0	32468	
7687	0	32758	
7688	0	32765	
7689	0	32780	
7690	0	32902	
7691	0	32644	
7692	0	32540	
7693	0	32480	
7694	0	32648	
7695	0	32560	
7696	0	32521	
7697	0	32708	
7698	0	32910	
7699	0	32910	
7700	0	32872	
7701	0	32731	
7702	0	32572	
7703	0	32888	
7704	0	33159	
7705	0	33048	
7706	0	32853	
7707	0	32600	
7708	0	32330	
7709	0	32548	
7710	0	33028	
7711	0	33344	
7712	0	33242	
7713	0	32888	
7714	0	32708	
7715	0	32706	
7716	0	32861	
7717	0	32837	
7718	0	32608	
7719	0	32334	
7720	0	32612	
7721	0	32902	
7722	0	32841	
7723	0	32712	
7724	0	32515	
7725	0	32812	
7726	0	33223	
7727	0	32920	
7728	0	32814	
7729	0	32744	
7730	0	32960	
7731	0	33210	
7732	0	33048	
7733	0	33162	
7734	0	32970	
7735	0	32780	
7736	0	32544	
7737	0	32128	
7738	0	32360	
7739	0	32568	
7740	0	32494	
7741	0	32614	
7742	0	32600	
7743	0	32690	
7744	0	32608	
7745	0	32672	
7746	0	32957	
7747	0	33033	
7748	0	33052	
7749	0	32936	
7750	0	33031	
7751	0	33074	
7752	0	32994	
7753	0	33010	
7754	0	32864	
7755	0	32861	
7756	0	32992	
7757	0	33116	
7758	0	32875	
7759	0	32818	
7760	0	33005	
7761	0	32943	
7762	0	32743	
7763	0	32732	
7764	0	32664	
7765	0	32838	
7766	0	32818	
7767	0	32450	
7768	0	32612	
7769	0	32580	
7770	0	32774	
7771	0	32840	
7772	0	32784	
7773	0	32813	
7774	0	32596	
7775	0	32723	
7776	0	32930	
7777	0	32801	
7778	0	32874	
7779	0	32993	
7780	0	33132	
7781	0	32952	
7782	0	33040	
7783	0	33428	
7784	0	33533	
7785	0	32986	
7786	0	32166	
7787	0	32192	
7788	0	32560	
7789	0	32432	
7790	0	31894	
7791	0	31512	
7792	0	31616	
7793	0	32576	
7794	0	33184	
7795	0	33344	
7796	0	33430	
7797	0	33168	
7798	0	32754	
7799	0	32708	
7800	0	33250	
7801	0	33142	
7802	0	33148	
7803	0	32976	
7804	0	32912	
7805	0	32784	
7806	0	32714	
7807	0	32775	
7808	0	32866	
7809	0	32984	
7810	0	32763	
7811	0	33046	
7812	0	33072	
7813	0	33048	
7814	0	32756	
7815	0	32576	
7816	0	32410	
7817	0	32394	
7818	0	32306	
7819	0	32392	
7820	0	33224	
7821	0	32842	
7822	0	32410	
7823	0	32280	
7824	0	32922	
7825	0	33052	
7826	0	32910	
7827	0	33513	
7828	0	33588	
7829	0	33084	
7830	0	33123	
7831	0	32802	
7832	0	32328	
7833	0	32396	
7834	0	32420	
7835	0	32690	
7836	0	33028	
7837	0	32584	
7838	0	32384	
7839	0	33296	
7840	0	33385	
7841	0	33244	
7842	0	33016	
7843	0	32974	
7844	0	33122	
7845	0	32808	
7846	0	32356	
7847	0	32430	
7848	0	32390	
7849	0	32312	
7850	0	32408	
7851	0	32660	
7852	0	32586	
7853	0	32632	
7854	0	32752	
7855	0	33322	
7856	0	33940	
7857	0	33136	
7858	0	32636	
7859	0	32530	
7860	0	33287	
7861	0	33348	
7862	0	32772	
7863	0	32652	
7864	0	32794	
7865	0	32816	
7866	0	32668	
7867	0	32670	
7868	0	32484	
7869	0	32464	
7870	0	32724	
7871	0	32454	
7872	0	32612	
7873	0	32830	
7874	0	32504	
7875	0	32825	
7876	0	33066	
7877	0	32808	
7878	0	33024	
7879	0	33416	
7880	0	32816	
7881	0	32562	
7882	0	32888	
7883	0	32894	
7884	0	32761	
7885	0	32699	
7886	0	32848	
7887	0	33196	
7888	0	32860	
7889	0	33114	
7890	0	33034	
7891	0	33033	
7892	0	32680	
7893	0	32843	
7894	0	32874	
7895	0	32730	
7896	0	32960	
7897	0	32252	
7898	0	31848	
7899	0	31890	
7900	0	32610	
7901	0	32750	
7902	0	32326	
7903	0	31849	
7904	0	32472	
7905	0	33260	
7906	0	33132	
7907	0	33220	
7908	0	33154	
7909	0	33298	
7910	0	33044	
7911	0	33096	
7912	0	33576	
7913	0	33268	
7914	0	33604	
7915	0	33473	
7916	0	33296	
7917	0	33328	
7918	0	33465	
7919	0	32720	
7920	0	31864	
7921	0	31338	
7922	0	29900	
7923	0	30392	
7924	0	32064	
7925	0	33855	
7926	0	33812	
7927	0	33220	
7928	0	32796	
7929	0	32720	
7930	0	33084	
7931	0	33418	
7932	0	32936	
7933	0	32272	
7934	0	32388	
7935	0	32594	
7936	0	32984	
7937	0	33594	
7938	0	33309	
7939	0	33200	
7940	0	32884	
7941	0	32612	
7942	0	32924	
7943	0	33217	
7944	0	32904	
7945	0	33091	
7946	0	33267	
7947	0	33346	
7948	0	33524	
7949	0	33298	
7950	0	33508	
7951	0	33124	
7952	0	32468	
7953	0	32188	
7954	0	31724	
7955	0	31184	
7956	0	31621	
7957	0	32372	
7958	0	32472	
7959	0	32946	
7960	0	33020	
7961	0	32660	
7962	0	32185	
7963	0	32651	
7964	0	33432	
7965	0	33816	
7966	0	33606	
7967	0	33486	
7968	0	33966	
7969	0	34171	
7970	0	34088	
7971	0	33404	
7972	0	32840	
7973	0	33266	
7974	0	32839	
7975	0	30460	
7976	0	31104	
7977	0	31976	
7978	0	31315	
7979	0	30280	
7980	0	30856	
7981	0	31280	
7982	0	32860	
7983	0	33368	
7984	0	33622	
7985	0	33616	
7986	0	33874	
7987	0	34304	
7988	0	34560	
7989	0	34786	
7990	0	35213	
7991	0	35104	
7992	0	34568	
7993	0	33944	
7994	0	33708	
7995	0	31442	
7996	0	28762	
7997	0	27555	
7998	0	29304	
7999	0	30212	
8000	0	30270	
8001	0	32025	
8002	0	34296	
8003	0	34568	
8004	0	34728	
8005	0	34296	
8006	0	34122	
8007	0	33840	
8008	0	33978	
8009	0	33064	
8010	0	32104	
8011	0	31890	
8012	0	31446	
8013	0	31044	
8014	0	32528	
8015	0	33608	
8016	0	33733	
8017	0	33010	
8018	0	32936	
8019	0	33344	
8020	0	33600	
8021	0	33887	
8022	0	33684	
8023	0	33260	
8024	0	33210	
8025	0	32738	
8026	0	32696	
8027	0	33068	
8028	0	32838	
8029	0	32176	
8030	0	31612	
8031	0	32416	
8032	0	32908	
8033	0	32660	
8034	0	33001	
8035	0	33368	
8036	0	33412	
8037	0	33120	
8038	0	32804	
8039	0	32556	
8040	0	32380	
8041	0	32770	
8042	0	32870	
8043	0	32446	
8044	0	32648	
8045	0	32568	
8046	0	32746	
8047	0	32664	
8048	0	32360	
8049	0	32960	
8050	0	33160	
8051	0	33112	
8052	0	33534	
8053	0	33456	
8054	0	33208	
8055	0	32844	
8056	0	33106	
8057	0	32741	
8058	0	32354	
8059	0	32344	
8060	0	32080	
8061	0	31252	
8062	0	31376	
8063	0	31534	
8064	0	31584	
8065	0	33088	
8066	0	33570	
8067	0	33576	
8068	0	34604	
8069	0	34419	
8070	0	33799	
8071	0	32630	
8072	0	32808	
8073	0	32530	
8074	0	33040	
8075	0	33542	
8076	0	34074	
8077	0	35068	
8078	0	34382	
8079	0	32984	
8080	0	32132	
8081	0	30672	
8082	0	31021	
8083	0	31346	
8084	0	30685	
8085	0	31654	
8086	0	32680	
8087	0	33540	
8088	0	32834	
8089	0	32200	
8090	0	31052	
8091	0	31056	
8092	0	31726	
8093	0	33901	
8094	0	32372	
8095	0	32738	
8096	0	33410	
8097	0	32956	
8098	0	32864	
8099	0	33224	
8100	0	34138	
8101	0	34480	
8102	0	33944	
8103	0	33355	
8104	0	32864	
8105	0	33324	
8106	0	33622	
8107	0	33480	
8108	0	33172	
8109	0	33296	
8110	0	33588	
8111	0	33555	
8112	0	32560	
8113	0	31304	
8114	0	31152	
8115	0	30972	
8116	0	31756	
8117	0	32775	
8118	0	33248	
8119	0	33517	
8120	0	33152	
8121	0	33370	
8122	0	32960	
8123	0	32838	
8124	0	33112	
8125	0	33396	
8126	0	32708	
8127	0	32466	
8128	0	33243	
8129	0	32836	
8130	0	32518	
8131	0	32472	
8132	0	31960	
8133	0	32020	
8134	0	32406	
8135	0	32578	
8136	0	33132	
8137	0	33824	
8138	0	32970	
8139	0	32864	
8140	0	32808	
8141	0	33730	
8142	0	34056	
8143	0	33946	
8144	0	31239	
8145	0	31682	
8146	0	33088	
8147	0	32508	
8148	0	31466	
8149	0	32196	
8150	0	32600	
8151	0	32306	
8152	0	33780	
8153	0	34122	
8154	0	34394	
8155	0	34210	
8156	0	34658	
8157	0	34308	
8158	0	32496	
8159	0	31721	
8160	0	31560	
8161	0	31854	
8162	0	31288	
8163	0	32546	
8164	0	33664	
8165	0	33484	
8166	0	32856	
8167	0	30792	
8168	0	28306	
8169	0	27226	
8170	0	30512	
8171	0	33640	
8172	0	34643	
8173	0	33560	
8174	0	34140	
8175	0	32722	
8176	0	31778	
8177	0	32896	
8178	0	33413	
8179	0	35504	
8180	0	36230	
8181	0	36080	
8182	0	35938	
8183	0	34849	
8184	0	34104	
8185	0	32769	
8186	0	32053	
8187	0	31412	
8188	0	29636	
8189	0	27664	
8190	0	29797	
8191	0	32125	
8192	0	33234	
8193	0	34036	
8194	0	33758	
8195	0	33608	
8196	0	33924	
8197	0	33938	
8198	0	32720	
8199	0	33069	
8200	0	32525	
8201	0	33112	
8202	0	32784	
8203	0	32428	
8204	0	32832	
8205	0	33408	
8206	0	32416	
8207	0	32536	
8208	0	32744	
8209	0	33016	
8210	0	33602	
8211	0	32824	
8212	0	32504	
8213	0	32340	
8214	0	31852	
8215	0	32075	
8216	0	32816	
8217	0	33438	
8218	0	33634	
8219	0	33868	
8220	0	33108	
8221	0	33225	
8222	0	33367	
8223	0	32356	
8224	0	32948	
8225	0	33979	
8226	0	33381	
8227	0	31832	
8228	0	30344	
8229	0	31190	
8230	0	31948	
8231	0	33474	
8232	0	33784	
8233	0	33720	
8234	0	34584	
8235	0	34346	
8236	0	32930	
8237	0	31072	
8238	0	30243	
8239	0	31640	
8240	0	32149	
8241	0	32481	
8242	0	33368	
8243	0	33584	
8244	0	33836	
8245	0	32832	
8246	0	32800	
8247	0	34298	
8248	0	32885	
8249	0	33257	
8250	0	33056	
8251	0	33458	
8252	0	34170	
8253	0	31904	
8254	0	29668	
8255	0	32212	
8256	0	33298	
8257	0	31248	
8258	0	29596	
8259	0	32681	
8260	0	34836	
8261	0	33890	
8262	0	32840	
8263	0	32468	
8264	0	31906	
8265	0	32328	
8266	0	33544	
8267	0	33749	
8268	0	33442	
8269	0	32708	
8270	0	33121	
8271	0	32775	
8272	0	32697	
8273	0	33586	
8274	0	33216	
8275	0	33456	
8276	0	32570	
8277	0	32912	
8278	0	33128	
8279	0	32565	
8280	0	33128	
8281	0	32356	
8282	0	32696	
8283	0	32883	
8284	0	32022	
8285	0	33106	
8286	0	33628	
8287	0	32344	
8288	0	32304	
8289	0	32760	
8290	0	33622	
8291	0	33768	
8292	0	33396	
8293	0	32592	
8294	0	31866	
8295	0	32414	
8296	0	32440	
8297	0	31200	
8298	0	31684	
8299	0	33440	
8300	0	34164	
8301	0	33597	
8302	0	33432	
8303	0	33360	
8304	0	32904	
8305	0	32932	
8306	0	32012	
8307	0	32164	
8308	0	32032	
8309	0	31146	
8310	0	32152	
8311	0	32666	
8312	0	33348	
8313	0	34536	
8314	0	35498	
8315	0	35716	
8316	0	33444	
8317	0	32480	
8318	0	31858	
8319	0	31708	
8320	0	30976	
8321	0	30374	
8322	0	32186	
8323	0	34462	
8324	0	34378	
8325	0	32196	
8326	0	32904	
8327	0	33098	
8328	0	32934	
8329	0	32152	
8330	0	30560	
8331	0	32442	
8332	0	32048	
8333	0	31269	
8334	0	31330	
8335	0	32626	
8336	0	33452	
8337	0	33287	
8338	0	34460	
8339	0	34664	
8340	0	33608	
8341	0	33306	
8342	0	33320	
8343	0	34196	
8344	0	32450	
8345	0	32376	
8346	0	33424	
8347	0	33232	
8348	0	32404	
8349	0	31672	
8350	0	30878	
8351	0	29156	
8352	0	29834	
8353	0	33250	
8354	0	35541	
8355	0	34000	
8356	0	33432	
8357	0	33524	
8358	0	33738	
8359	0	32270	
8360	0	31716	
8361	0	33852	
8362	0	34000	
8363	0	33826	
8364	0	33176	
8365	0	32962	
8366	0	32730	
8367	0	33387	
8368	0	33577	
8369	0	31920	
8370	0	31868	
8371	0	32834	
8372	0	34618	
8373	0	33140	
8374	0	32728	
8375	0	33605	
8376	0	33492	
8377	0	31040	
8378	0	29096	
8379	0	29952	
8380	0	31744	
8381	0	32454	
8382	0	32952	
8383	0	33352	
8384	0	33760	
8385	0	34768	
8386	0	33952	
8387	0	33776	
8388	0	33988	
8389	0	34018	
8390	0	32500	
8391	0	31163	
8392	0	31164	
8393	0	33000	
8394	0	33196	
8395	0	32812	
8396	0	33122	
8397	0	33748	
8398	0	34664	
8399	0	33164	
8400	0	32208	
8401	0	32524	
8402	0	33201	
8403	0	32413	
8404	0	31898	
8405	0	32998	
8406	0	33376	
8407	0	31174	
8408	0	31936	
8409	0	33916	
8410	0	33728	
8411	0	32816	
8412	0	30480	
8413	0	31156	
8414	0	32664	
8415	0	33060	
8416	0	33528	
8417	0	34100	
8418	0	33992	
8419	0	32136	
8420	0	32400	
8421	0	32704	
8422	0	32544	
8423	0	32294	
8424	0	31768	
8425	0	32521	
8426	0	34050	
8427	0	35244	
8428	0	34000	
8429	0	32202	
8430	0	32520	
8431	0	33432	
8432	0	30184	
8433	0	29232	
8434	0	31728	
8435	0	33256	
8436	0	33479	
8437	0	33466	
8438	0	33564	
8439	0	33340	
8440	0	32720	
8441	0	32448	
8442	0	31884	
8443	0	35210	
8444	0	34288	
8445	0	33300	
8446	0	32748	
8447	0	31924	
8448	0	32102	
8449	0	29716	
8450	0	30764	
8451	0	31824	
8452	0	33100	
8453	0	33724	
8454	0	33441	
8455	0	34130	
8456	0	33906	
8457	0	34273	
8458	0	34988	
8459	0	34308	
8460	0	33524	
8461	0	31751	
8462	0	30917	
8463	0	32632	
8464	0	33792	
8465	0	32476	
8466	0	32464	
8467	0	33297	
8468	0	32996	
8469	0	31704	
8470	0	30836	
8471	0	32980	
8472	0	34462	
8473	0	33752	
8474	0	32942	
8475	0	32616	
8476	0	32420	
8477	0	31764	
8478	0	31816	
8479	0	31490	
8480	0	32770	
8481	0	32864	
8482	0	32672	
8483	0	32944	
8484	0	32894	
8485	0	33784	
8486	0	32797	
8487	0	32224	
8488	0	33856	
8489	0	34115	
8490	0	34802	
8491	0	33416	
8492	0	32824	
8493	0	33544	
8494	0	34128	
8495	0	34888	
8496	0	31520	
8497	0	30696	
8498	0	29016	
8499	0	28236	
8500	0	31092	
8501	0	32329	
8502	0	33248	
8503	0	34060	
8504	0	33646	
8505	0	34272	
8506	0	34914	
8507	0	34000	
8508	0	32541	
8509	0	32189	
8510	0	32944	
8511	0	32884	
8512	0	32636	
8513	0	34500	
8514	0	33648	
8515	0	33724	
8516	0	34242	
8517	0	32177	
8518	0	30727	
8519	0	29462	
8520	0	30698	
8521	0	32144	
8522	0	32700	
8523	0	32915	
8524	0	32748	
8525	0	31686	
8526	0	31628	
8527	0	33078	
8528	0	34120	
8529	0	34355	
8530	0	33424	
8531	0	34320	
8532	0	33124	
8533	0	32680	
8534	0	33473	
8535	0	32852	
8536	0	33236	
8537	0	33478	
8538	0	32774	
8539	0	32604	
8540	0	34576	
8541	0	35792	
8542	0	35741	
8543	0	34680	
8544	0	33696	
8545	0	33441	
8546	0	30405	
8547	0	25752	
8548	0	25172	
8549	0	28020	
8550	0	31482	
8551	0	33236	
8552	0	33224	
8553	0	33728	
8554	0	33950	
8555	0	34636	
8556	0	35398	
8557	0	35728	
8558	0	34439	
8559	0	34664	
8560	0	32356	
8561	0	30612	
8562	0	30492	
8563	0	33070	
8564	0	34417	
8565	0	35548	
8566	0	35098	
8567	0	34760	
8568	0	34716	
8569	0	32944	
8570	0	31157	
8571	0	30781	
8572	0	31708	
8573	0	29776	
8574	0	28028	
8575	0	29676	
8576	0	31942	
8577	0	33272	
8578	0	33712	
8579	0	33496	
8580	0	33248	
8581	0	34264	
8582	0	34728	
8583	0	34348	
8584	0	33699	
8585	0	33040	
8586	0	33074	
8587	0	34412	
8588	0	34692	
8589	0	32842	
8590	0	33331	
8591	0	34618	
8592	0	34002	
8593	0	33314	
8594	0	31234	
8595	0	29256	
8596	0	30068	
8597	0	30752	
8598	0	29408	
8599	0	29082	
8600	0	29968	
8601	0	32720	
8602	0	32908	
8603	0	32858	
8604	0	33856	
8605	0	34218	
8606	0	35476	
8607	0	35304	
8608	0	34204	
8609	0	34089	
8610	0	33092	
8611	0	33405	
8612	0	33817	
