# OpenSignals Text File Format
# {"00:07:80:3B:46:66": {"sensor": ["EMG"], "device name": "00:07:80:3B:46:66", "column": ["nSeq", "DI", "CH1"], "sync interval": 2, "time": "18:17:11.75", "comments": "", "device connection": "BTH00:07:80:3B:46:66", "channels": [1], "keywords": "", "mode": 0, "digital IO": [0, 1], "firmware version": 773, "device": "biosignalsplux", "position": 0, "sampling rate": 200, "label": ["CH1"], "resolution": [16], "date": "2019-5-21", "special": [{}]}}
# EndOfHeader
0	0	47768	
1	0	33816	
2	0	41454	
3	0	33004	
4	0	47548	
5	0	34140	
6	0	42844	
7	0	33216	
8	0	47892	
9	0	34192	
10	0	37850	
11	0	32553	
12	0	46560	
13	0	34358	
14	0	39247	
15	0	33064	
16	0	47544	
17	0	34444	
18	0	42874	
19	0	33108	
20	0	47922	
21	0	34013	
22	0	42242	
23	0	33016	
24	0	47960	
25	0	34107	
26	0	38615	
27	0	32848	
28	0	46599	
29	0	34140	
30	0	41711	
31	0	32976	
32	0	47655	
33	0	34128	
34	0	38233	
35	0	33164	
36	0	47616	
37	0	34402	
38	0	27542	
39	0	31270	
40	0	35590	
41	0	32357	
42	0	44584	
43	0	35092	
44	0	47460	
45	0	34228	
46	0	39943	
47	0	33912	
48	0	46888	
49	0	34198	
50	0	41844	
51	0	33760	
52	0	47484	
53	0	34157	
54	0	39234	
55	0	33424	
56	0	46970	
57	0	33934	
58	0	42826	
59	0	34298	
60	0	47936	
61	0	34356	
62	0	38912	
63	0	33341	
64	0	45588	
65	0	33605	
66	0	38046	
67	0	33880	
68	0	45832	
69	0	33704	
70	0	25928	
71	0	30860	
72	0	35238	
73	0	32394	
74	0	38665	
75	0	34847	
76	0	45940	
77	0	33970	
78	0	39456	
79	0	34401	
80	0	45984	
81	0	33853	
82	0	38482	
83	0	33928	
84	0	45692	
85	0	33720	
86	0	43304	
87	0	34763	
88	0	46512	
89	0	33548	
90	0	43028	
91	0	34716	
92	0	48112	
93	0	34232	
94	0	39707	
95	0	33796	
96	0	47616	
97	0	34216	
98	0	38303	
99	0	33876	
100	0	46625	
101	0	34330	
102	0	42055	
103	0	34426	
104	0	49108	
105	0	34372	
106	0	39544	
107	0	33765	
108	0	48388	
109	0	34554	
110	0	38119	
111	0	33581	
112	0	47952	
113	0	34247	
114	0	39158	
115	0	33622	
116	0	48941	
117	0	34737	
118	0	41520	
119	0	33868	
120	0	49352	
121	0	34415	
122	0	39578	
123	0	33632	
124	0	49112	
125	0	34537	
126	0	38970	
127	0	33641	
128	0	50077	
129	0	34768	
130	0	27272	
131	0	31112	
132	0	38808	
133	0	33124	
134	0	43844	
135	0	35228	
136	0	50810	
137	0	34916	
138	0	38788	
139	0	33712	
140	0	49001	
141	0	34567	
142	0	38949	
143	0	33694	
144	0	48884	
145	0	34789	
146	0	41640	
147	0	34296	
148	0	50072	
149	0	34548	
150	0	37816	
151	0	33497	
152	0	48804	
153	0	34529	
154	0	43666	
155	0	34823	
156	0	49580	
157	0	34386	
158	0	41750	
159	0	34252	
160	0	49312	
161	0	34440	
162	0	43260	
163	0	34596	
164	0	49912	
165	0	34541	
166	0	42744	
167	0	34313	
168	0	49336	
169	0	34432	
170	0	38760	
171	0	33585	
172	0	50621	
173	0	34701	
174	0	42788	
175	0	34584	
176	0	49848	
177	0	34540	
178	0	43097	
179	0	34498	
180	0	49280	
181	0	34470	
182	0	43137	
183	0	34436	
184	0	49820	
185	0	34132	
186	0	42648	
187	0	34511	
188	0	49740	
189	0	34176	
190	0	40214	
191	0	33936	
192	0	50676	
193	0	34472	
194	0	39892	
195	0	34032	
196	0	49024	
197	0	34440	
198	0	37154	
199	0	33420	
200	0	49920	
201	0	34125	
202	0	43162	
203	0	34868	
204	0	49968	
205	0	34756	
206	0	43151	
207	0	34311	
208	0	49716	
209	0	34345	
210	0	39336	
211	0	33812	
212	0	49336	
213	0	34690	
214	0	42528	
215	0	34476	
216	0	50597	
217	0	34508	
218	0	39104	
219	0	33912	
220	0	48864	
221	0	34581	
222	0	42404	
223	0	34492	
224	0	50210	
225	0	34508	
226	0	39290	
227	0	33844	
228	0	49472	
229	0	34910	
230	0	44072	
231	0	34660	
232	0	51264	
233	0	34325	
234	0	43461	
235	0	34610	
236	0	50098	
237	0	34384	
238	0	38650	
239	0	33707	
240	0	48620	
241	0	34556	
242	0	43428	
243	0	34714	
244	0	50052	
245	0	34362	
246	0	40012	
247	0	33941	
248	0	50068	
249	0	34762	
250	0	37877	
251	0	33450	
252	0	49456	
253	0	34644	
254	0	38300	
255	0	33764	
256	0	49264	
257	0	34538	
258	0	38036	
259	0	33812	
260	0	48464	
261	0	34662	
262	0	43728	
263	0	34872	
264	0	51144	
265	0	34633	
266	0	39744	
267	0	33929	
268	0	49868	
269	0	34571	
270	0	43512	
271	0	34696	
272	0	51832	
273	0	34264	
274	0	43527	
275	0	34589	
276	0	51416	
277	0	34452	
278	0	43656	
279	0	34697	
280	0	51432	
281	0	34441	
282	0	39815	
283	0	33799	
284	0	51528	
285	0	34731	
286	0	26232	
287	0	30768	
288	0	39352	
289	0	32496	
290	0	39462	
291	0	34662	
292	0	49848	
293	0	35360	
294	0	42220	
295	0	34716	
296	0	51972	
297	0	34728	
298	0	43632	
299	0	34665	
300	0	50736	
301	0	34586	
302	0	43245	
303	0	34554	
304	0	50937	
305	0	34416	
306	0	39150	
307	0	33852	
308	0	50348	
309	0	34468	
310	0	40796	
311	0	34256	
312	0	51616	
313	0	34729	
314	0	43368	
315	0	34631	
316	0	50724	
317	0	34708	
318	0	43380	
319	0	34702	
320	0	51704	
321	0	34410	
322	0	43712	
323	0	34732	
324	0	52176	
325	0	34574	
326	0	39016	
327	0	33776	
328	0	51207	
329	0	34557	
330	0	39179	
331	0	33946	
332	0	50092	
333	0	34552	
334	0	43079	
335	0	34728	
336	0	50788	
337	0	34520	
338	0	41816	
339	0	34336	
340	0	50664	
341	0	34536	
342	0	43557	
343	0	34792	
344	0	52472	
345	0	34581	
346	0	43653	
347	0	34631	
348	0	51800	
349	0	34645	
350	0	39304	
351	0	33784	
352	0	51304	
353	0	34626	
354	0	41882	
355	0	34513	
356	0	53168	
357	0	34464	
358	0	43652	
359	0	34683	
360	0	51760	
361	0	34632	
362	0	40036	
363	0	33772	
364	0	50832	
365	0	34563	
366	0	38766	
367	0	33936	
368	0	50328	
369	0	34632	
370	0	44190	
371	0	34897	
372	0	52649	
373	0	34763	
374	0	43756	
375	0	34770	
376	0	53084	
377	0	34728	
378	0	43108	
379	0	34656	
380	0	54608	
381	0	34397	
382	0	43392	
383	0	34642	
384	0	52880	
385	0	34700	
386	0	43436	
387	0	34740	
388	0	52552	
389	0	34578	
390	0	39499	
391	0	33849	
392	0	53204	
393	0	34631	
394	0	42564	
395	0	34660	
396	0	54824	
397	0	34577	
398	0	43553	
399	0	34716	
400	0	54492	
401	0	34501	
402	0	38808	
403	0	33744	
404	0	54192	
405	0	34680	
406	0	43769	
407	0	34886	
408	0	53128	
409	0	34702	
410	0	43218	
411	0	34799	
412	0	54940	
413	0	34532	
414	0	43378	
415	0	34687	
416	0	54329	
417	0	34869	
418	0	40004	
419	0	34116	
420	0	52184	
421	0	34730	
422	0	44388	
423	0	35086	
424	0	52984	
425	0	34823	
426	0	40312	
427	0	33906	
428	0	53912	
429	0	34525	
430	0	44356	
431	0	35300	
432	0	53767	
433	0	34853	
434	0	44103	
435	0	34574	
436	0	55593	
437	0	34661	
438	0	44628	
439	0	34594	
440	0	56524	
441	0	34850	
442	0	40212	
443	0	33370	
444	0	52624	
445	0	34909	
446	0	44221	
447	0	35240	
448	0	55010	
449	0	34857	
450	0	42789	
451	0	34619	
452	0	57744	
453	0	35167	
454	0	43976	
455	0	34772	
456	0	60380	
457	0	35368	
458	0	40780	
459	0	33948	
460	0	56324	
461	0	36086	
462	0	46810	
463	0	35081	
464	0	61940	
465	0	35844	
466	0	46436	
467	0	34924	
468	0	62840	
469	0	35496	
470	0	47623	
471	0	35328	
472	0	63384	
473	0	35488	
474	0	48556	
475	0	35294	
476	0	63136	
477	0	36010	
478	0	48711	
479	0	35122	
480	0	63065	
481	0	35563	
482	0	49912	
483	0	35645	
484	0	62768	
485	0	35486	
486	0	50232	
487	0	35632	
488	0	62436	
489	0	35604	
490	0	50124	
491	0	35876	
492	0	62656	
493	0	35192	
494	0	49157	
495	0	35606	
496	0	62514	
497	0	35394	
498	0	49336	
499	0	36121	
500	0	62436	
501	0	35810	
502	0	49600	
503	0	35836	
504	0	62168	
505	0	35612	
506	0	48976	
507	0	35632	
508	0	62280	
509	0	35804	
510	0	48940	
511	0	35620	
512	0	62208	
513	0	35948	
514	0	48398	
515	0	35406	
516	0	62120	
517	0	35720	
518	0	49252	
519	0	35728	
520	0	62360	
521	0	35576	
522	0	49232	
523	0	35822	
524	0	61848	
525	0	35548	
526	0	49312	
527	0	35824	
528	0	61564	
529	0	35781	
530	0	49656	
531	0	35898	
532	0	61504	
533	0	35824	
534	0	49176	
535	0	35640	
536	0	61256	
537	0	35836	
538	0	49234	
539	0	35696	
540	0	61332	
541	0	35984	
542	0	49830	
543	0	35810	
544	0	61144	
545	0	36026	
546	0	49876	
547	0	35544	
548	0	60652	
549	0	35574	
550	0	50760	
551	0	35752	
552	0	61456	
553	0	35648	
554	0	49992	
555	0	35897	
556	0	60832	
557	0	35889	
558	0	49969	
559	0	35770	
560	0	60448	
561	0	35736	
562	0	50796	
563	0	35810	
564	0	60344	
565	0	35568	
566	0	52912	
567	0	36066	
568	0	60240	
569	0	35760	
570	0	51372	
571	0	35564	
572	0	60144	
573	0	35897	
574	0	51304	
575	0	35904	
576	0	59872	
577	0	35912	
578	0	50020	
579	0	35900	
580	0	60080	
581	0	36045	
582	0	50668	
583	0	35730	
584	0	59712	
585	0	36008	
586	0	50756	
587	0	36046	
588	0	59264	
589	0	36272	
590	0	54144	
591	0	35364	
592	0	59700	
593	0	35980	
594	0	50912	
595	0	35931	
596	0	59312	
597	0	35992	
598	0	51576	
599	0	35721	
600	0	59144	
601	0	36048	
602	0	50560	
603	0	35924	
604	0	59056	
605	0	35881	
606	0	52080	
607	0	35730	
608	0	58768	
609	0	36100	
610	0	53562	
611	0	35708	
612	0	58768	
613	0	36153	
614	0	52096	
615	0	35772	
616	0	58256	
617	0	36319	
618	0	54468	
619	0	35932	
620	0	59336	
621	0	35936	
622	0	52160	
623	0	35861	
624	0	58160	
625	0	36231	
626	0	52216	
627	0	35783	
628	0	57820	
629	0	36193	
630	0	50728	
631	0	36066	
632	0	57844	
633	0	35968	
634	0	51256	
635	0	35911	
636	0	57160	
637	0	36318	
638	0	51136	
639	0	36022	
640	0	57440	
641	0	35814	
642	0	50962	
643	0	36116	
644	0	56216	
645	0	36442	
646	0	51018	
647	0	36050	
648	0	55880	
649	0	36356	
650	0	52968	
651	0	36072	
652	0	56052	
653	0	36260	
654	0	51072	
655	0	36105	
656	0	55916	
657	0	36359	
658	0	55296	
659	0	35897	
660	0	55300	
661	0	36320	
662	0	52666	
663	0	36089	
664	0	54672	
665	0	36502	
666	0	53176	
667	0	35896	
668	0	55768	
669	0	36180	
670	0	54600	
671	0	36018	
672	0	54560	
673	0	36492	
674	0	51600	
675	0	36084	
676	0	54992	
677	0	36332	
678	0	51600	
679	0	36142	
680	0	54672	
681	0	36468	
682	0	52344	
683	0	36144	
684	0	54848	
685	0	36268	
686	0	53108	
687	0	36056	
688	0	54828	
689	0	36550	
690	0	52880	
691	0	36094	
692	0	54176	
693	0	36288	
694	0	51366	
695	0	36432	
696	0	53368	
697	0	36317	
698	0	54572	
699	0	36122	
700	0	52840	
701	0	36444	
702	0	51856	
703	0	36378	
704	0	52736	
705	0	36352	
706	0	53568	
707	0	36313	
708	0	52880	
709	0	35888	
710	0	55698	
711	0	36634	
712	0	51364	
713	0	37012	
714	0	55256	
715	0	36610	
716	0	51436	
717	0	36685	
718	0	60128	
719	0	35956	
720	0	50692	
721	0	36614	
722	0	55632	
723	0	36018	
724	0	50528	
725	0	35581	
726	0	57820	
727	0	37508	
728	0	51756	
729	0	35068	
730	0	59856	
731	0	35737	
732	0	51144	
733	0	35243	
734	0	62816	
735	0	36430	
736	0	45505	
737	0	37768	
738	0	59072	
739	0	37144	
740	0	49144	
741	0	35996	
742	0	60132	
743	0	33586	
744	0	46320	
745	0	38432	
746	0	59712	
747	0	2849	
748	0	45744	
749	0	36964	
750	0	24938	
751	0	3882	
752	0	53980	
753	0	37177	
754	0	33126	
755	0	24644	
756	0	60184	
757	0	9938	
758	0	28760	
759	0	41344	
760	0	60376	
761	0	3626	
762	0	28594	
763	0	41704	
764	0	55600	
765	0	24892	
766	0	37232	
767	0	42886	
768	0	55298	
769	0	34240	
770	0	37304	
771	0	39303	
772	0	54380	
773	0	34368	
774	0	38112	
775	0	39280	
776	0	55784	
777	0	34248	
778	0	40292	
779	0	39943	
780	0	57240	
781	0	33008	
782	0	31904	
783	0	43848	
784	0	57784	
785	0	29417	
786	0	38640	
787	0	41476	
788	0	57080	
789	0	32320	
790	0	37153	
791	0	40966	
792	0	53828	
793	0	33596	
794	0	60176	
795	0	37776	
796	0	48960	
797	0	35170	
798	0	61496	
799	0	37145	
800	0	47056	
801	0	35612	
802	0	60608	
803	0	36344	
804	0	46052	
805	0	35847	
806	0	59213	
807	0	36480	
808	0	44208	
809	0	36469	
810	0	61136	
811	0	36220	
812	0	46224	
813	0	36359	
814	0	60568	
815	0	37109	
816	0	42848	
817	0	36935	
818	0	57592	
819	0	35897	
820	0	42536	
821	0	36482	
822	0	60324	
823	0	36430	
824	0	42180	
825	0	36342	
826	0	55824	
827	0	36406	
828	0	40760	
829	0	36372	
830	0	58122	
831	0	36314	
832	0	41096	
833	0	36359	
834	0	60280	
835	0	36708	
836	0	39368	
837	0	36822	
838	0	60096	
839	0	36764	
840	0	40842	
841	0	36478	
842	0	54288	
843	0	36852	
844	0	38226	
845	0	37168	
846	0	56056	
847	0	36978	
848	0	42252	
849	0	36550	
850	0	56932	
851	0	36432	
852	0	39048	
853	0	37214	
854	0	54278	
855	0	37152	
856	0	41136	
857	0	37097	
858	0	54930	
859	0	36736	
860	0	38016	
861	0	36416	
862	0	54832	
863	0	36482	
864	0	37312	
865	0	36614	
866	0	58976	
867	0	36722	
868	0	38969	
869	0	36201	
870	0	56532	
871	0	36626	
872	0	35948	
873	0	36816	
874	0	59200	
875	0	36370	
876	0	35712	
877	0	36697	
878	0	58886	
879	0	36460	
880	0	35410	
881	0	36680	
882	0	58800	
883	0	36263	
884	0	36164	
885	0	36656	
886	0	58904	
887	0	36649	
888	0	35520	
889	0	37056	
890	0	55248	
891	0	36882	
892	0	34212	
893	0	36510	
894	0	57888	
895	0	36786	
896	0	34584	
897	0	36818	
898	0	56772	
899	0	36626	
900	0	33564	
901	0	36776	
902	0	57652	
903	0	36638	
904	0	34544	
905	0	36533	
906	0	57192	
907	0	36547	
908	0	32400	
909	0	36832	
910	0	57920	
911	0	36297	
912	0	33524	
913	0	36756	
914	0	57181	
915	0	36430	
916	0	35260	
917	0	37288	
918	0	58176	
919	0	36337	
920	0	35112	
921	0	36908	
922	0	57824	
923	0	36769	
924	0	31392	
925	0	36586	
926	0	58264	
927	0	37184	
928	0	35677	
929	0	36920	
930	0	56924	
931	0	36325	
932	0	34324	
933	0	36829	
934	0	53554	
935	0	36856	
936	0	34200	
937	0	36751	
938	0	57136	
939	0	36556	
940	0	33328	
941	0	36802	
942	0	56848	
943	0	36856	
944	0	31502	
945	0	36545	
946	0	54400	
947	0	37064	
948	0	31816	
949	0	36633	
950	0	53512	
951	0	36972	
952	0	31044	
953	0	37480	
954	0	53560	
955	0	36679	
956	0	33500	
957	0	38112	
958	0	58268	
959	0	37112	
960	0	33784	
961	0	35820	
962	0	57628	
963	0	36471	
964	0	31520	
965	0	35072	
966	0	56664	
967	0	35122	
968	0	32050	
969	0	35248	
970	0	58432	
971	0	37602	
972	0	30808	
973	0	36440	
974	0	56208	
975	0	38407	
976	0	30692	
977	0	34432	
978	0	55932	
979	0	37140	
980	0	31099	
981	0	36852	
982	0	54304	
983	0	37783	
984	0	27696	
985	0	38180	
986	0	55252	
987	0	33799	
988	0	30440	
989	0	38328	
990	0	56656	
991	0	35975	
992	0	31344	
993	0	35828	
994	0	56052	
995	0	36160	
996	0	31620	
997	0	36645	
998	0	54444	
999	0	37346	
1000	0	35112	
1001	0	36340	
1002	0	49200	
1003	0	38356	
1004	0	34440	
1005	0	33661	
1006	0	47528	
1007	0	38329	
1008	0	36752	
1009	0	36713	
1010	0	51056	
1011	0	37940	
1012	0	37666	
1013	0	35278	
1014	0	49508	
1015	0	38290	
1016	0	35092	
1017	0	36335	
1018	0	51492	
1019	0	38580	
1020	0	34836	
1021	0	37160	
1022	0	50584	
1023	0	38334	
1024	0	37168	
1025	0	38098	
1026	0	37963	
1027	0	39458	
1028	0	37376	
1029	0	37412	
1030	0	52552	
1031	0	37796	
1032	0	37272	
1033	0	36276	
1034	0	45080	
1035	0	38400	
1036	0	37244	
1037	0	35604	
1038	0	52088	
1039	0	37969	
1040	0	34264	
1041	0	36546	
1042	0	54392	
1043	0	37840	
1044	0	29084	
1045	0	37362	
1046	0	54816	
1047	0	36400	
1048	0	27360	
1049	0	36870	
1050	0	54568	
1051	0	36696	
1052	0	27208	
1053	0	37614	
1054	0	52680	
1055	0	37028	
1056	0	26764	
1057	0	37224	
1058	0	54308	
1059	0	37140	
1060	0	26620	
1061	0	37530	
1062	0	53548	
1063	0	37240	
1064	0	26060	
1065	0	37672	
1066	0	52324	
1067	0	37202	
1068	0	25802	
1069	0	37140	
1070	0	52345	
1071	0	37065	
1072	0	25188	
1073	0	36180	
1074	0	52964	
1075	0	37100	
1076	0	25252	
1077	0	37373	
1078	0	52168	
1079	0	36492	
1080	0	24946	
1081	0	37280	
1082	0	50800	
1083	0	37378	
1084	0	24348	
1085	0	36837	
1086	0	51448	
1087	0	36344	
1088	0	25412	
1089	0	37703	
1090	0	52100	
1091	0	36532	
1092	0	25224	
1093	0	37558	
1094	0	50268	
1095	0	37289	
1096	0	25657	
1097	0	37464	
1098	0	52324	
1099	0	36524	
1100	0	23626	
1101	0	37484	
1102	0	50512	
1103	0	37069	
1104	0	22436	
1105	0	37562	
1106	0	50536	
1107	0	36412	
1108	0	24125	
1109	0	37801	
1110	0	50056	
1111	0	37119	
1112	0	23792	
1113	0	37376	
1114	0	48704	
1115	0	36884	
1116	0	24196	
1117	0	37434	
1118	0	50296	
1119	0	37117	
1120	0	23012	
1121	0	37450	
1122	0	47498	
1123	0	36622	
1124	0	23802	
1125	0	37608	
1126	0	47472	
1127	0	37352	
1128	0	23838	
1129	0	37340	
1130	0	48284	
1131	0	36750	
1132	0	23436	
1133	0	37971	
1134	0	48220	
1135	0	36625	
1136	0	22528	
1137	0	37917	
1138	0	47016	
1139	0	37042	
1140	0	21480	
1141	0	37734	
1142	0	45256	
1143	0	37234	
1144	0	19780	
1145	0	37915	
1146	0	43280	
1147	0	36867	
1148	0	24172	
1149	0	37960	
1150	0	42168	
1151	0	37523	
1152	0	22181	
1153	0	38167	
1154	0	41996	
1155	0	37239	
1156	0	21180	
1157	0	38872	
1158	0	45188	
1159	0	36640	
1160	0	20644	
1161	0	37609	
1162	0	43816	
1163	0	37272	
1164	0	18715	
1165	0	38118	
1166	0	43796	
1167	0	37284	
1168	0	21244	
1169	0	37885	
1170	0	41032	
1171	0	37472	
1172	0	18612	
1173	0	38370	
1174	0	41432	
1175	0	36973	
1176	0	19564	
1177	0	37782	
1178	0	42232	
1179	0	36900	
1180	0	20722	
1181	0	37986	
1182	0	40080	
1183	0	36800	
1184	0	20082	
1185	0	37680	
1186	0	36776	
1187	0	37216	
1188	0	18460	
1189	0	36896	
1190	0	36816	
1191	0	36955	
1192	0	21024	
1193	0	37017	
1194	0	27836	
1195	0	36072	
1196	0	18605	
1197	0	37497	
1198	0	27624	
1199	0	36788	
1200	0	19308	
1201	0	37124	
1202	0	3136	
1203	0	34690	
1204	0	23380	
1205	0	37428	
1206	0	3933	
1207	0	34382	
1208	0	24340	
1209	0	36816	
1210	0	29072	
1211	0	37200	
1212	0	19920	
1213	0	37352	
1214	0	4483	
1215	0	35584	
1216	0	21224	
1217	0	37491	
1218	0	3457	
1219	0	35104	
1220	0	22790	
1221	0	37106	
1222	0	33960	
1223	0	36476	
1224	0	20784	
1225	0	36928	
1226	0	38130	
1227	0	36359	
1228	0	22168	
1229	0	37174	
1230	0	37116	
1231	0	36452	
1232	0	22328	
1233	0	36706	
1234	0	3412	
1235	0	34808	
1236	0	21865	
1237	0	37033	
1238	0	29960	
1239	0	35817	
1240	0	21677	
1241	0	37100	
1242	0	4836	
1243	0	35184	
1244	0	22570	
1245	0	36698	
1246	0	4186	
1247	0	35116	
1248	0	23388	
1249	0	37105	
1250	0	39060	
1251	0	36283	
1252	0	23424	
1253	0	36816	
1254	0	3454	
1255	0	34818	
1256	0	24196	
1257	0	37266	
1258	0	41952	
1259	0	36573	
1260	0	25352	
1261	0	37016	
1262	0	12778	
1263	0	35278	
1264	0	24008	
1265	0	36720	
1266	0	40481	
1267	0	36664	
1268	0	26404	
1269	0	36632	
1270	0	13316	
1271	0	35180	
1272	0	25348	
1273	0	36720	
1274	0	40664	
1275	0	36266	
1276	0	26960	
1277	0	36180	
1278	0	44160	
1279	0	36422	
1280	0	26836	
1281	0	36883	
1282	0	45696	
1283	0	36352	
1284	0	26480	
1285	0	36680	
1286	0	46696	
1287	0	36230	
1288	0	28008	
1289	0	36244	
1290	0	45420	
1291	0	35786	
1292	0	28076	
1293	0	36502	
1294	0	37840	
1295	0	35655	
1296	0	27056	
1297	0	36672	
1298	0	21318	
1299	0	34872	
1300	0	29280	
1301	0	36096	
1302	0	17394	
1303	0	35203	
1304	0	27952	
1305	0	36694	
1306	0	29416	
1307	0	34921	
1308	0	29300	
1309	0	36758	
1310	0	8205	
1311	0	34464	
1312	0	30212	
1313	0	36295	
1314	0	49016	
1315	0	36797	
1316	0	28008	
1317	0	36653	
1318	0	33416	
1319	0	34729	
1320	0	29344	
1321	0	36937	
1322	0	18812	
1323	0	34972	
1324	0	30682	
1325	0	36359	
1326	0	51016	
1327	0	36338	
1328	0	29408	
1329	0	36727	
1330	0	25852	
1331	0	34385	
1332	0	31242	
1333	0	36034	
1334	0	31488	
1335	0	34996	
1336	0	29960	
1337	0	36472	
1338	0	44112	
1339	0	35468	
1340	0	28646	
1341	0	36295	
1342	0	27424	
1343	0	34848	
1344	0	29519	
1345	0	36325	
1346	0	11620	
1347	0	34351	
1348	0	29874	
1349	0	36071	
1350	0	30660	
1351	0	34552	
1352	0	29324	
1353	0	36712	
1354	0	52120	
1355	0	36284	
1356	0	32369	
1357	0	36816	
1358	0	53672	
1359	0	36112	
1360	0	33429	
1361	0	36103	
1362	0	44042	
1363	0	35080	
1364	0	29616	
1365	0	36609	
1366	0	52900	
1367	0	35736	
1368	0	34060	
1369	0	35896	
1370	0	50536	
1371	0	35222	
1372	0	30826	
1373	0	36536	
1374	0	33560	
1375	0	34818	
1376	0	31565	
1377	0	36130	
1378	0	52344	
1379	0	36008	
1380	0	33152	
1381	0	36047	
1382	0	56280	
1383	0	35753	
1384	0	35650	
1385	0	35889	
1386	0	48528	
1387	0	35806	
1388	0	34296	
1389	0	36028	
1390	0	53026	
1391	0	35666	
1392	0	36112	
1393	0	36034	
1394	0	54452	
1395	0	35941	
1396	0	36768	
1397	0	35701	
1398	0	47179	
1399	0	35335	
1400	0	36720	
1401	0	35976	
1402	0	56480	
1403	0	35847	
1404	0	37060	
1405	0	35779	
1406	0	50153	
1407	0	35314	
1408	0	38392	
1409	0	35802	
1410	0	48760	
1411	0	34492	
1412	0	36192	
1413	0	36216	
1414	0	51299	
1415	0	35988	
1416	0	39640	
1417	0	35770	
1418	0	50810	
1419	0	35945	
1420	0	39218	
1421	0	35936	
1422	0	29897	
1423	0	30636	
1424	0	40848	
1425	0	33398	
1426	0	49104	
1427	0	36896	
1428	0	40332	
1429	0	36346	
1430	0	47464	
1431	0	34637	
1432	0	39964	
1433	0	35888	
1434	0	51130	
1435	0	35147	
1436	0	41476	
1437	0	35992	
1438	0	48928	
1439	0	34980	
1440	0	41028	
1441	0	35800	
1442	0	51314	
1443	0	35813	
1444	0	43928	
1445	0	35574	
1446	0	48800	
1447	0	35122	
1448	0	43920	
1449	0	35816	
1450	0	43216	
1451	0	34752	
1452	0	44456	
1453	0	35605	
1454	0	56002	
1455	0	35368	
1456	0	44272	
1457	0	36060	
1458	0	58920	
1459	0	35361	
1460	0	44632	
1461	0	35794	
1462	0	50760	
1463	0	35572	
1464	0	46552	
1465	0	35640	
1466	0	49724	
1467	0	35604	
1468	0	43968	
1469	0	36028	
1470	0	51408	
1471	0	34020	
1472	0	46672	
1473	0	35780	
1474	0	50340	
1475	0	35754	
1476	0	45296	
1477	0	36005	
1478	0	47237	
1479	0	34181	
1480	0	48176	
1481	0	35982	
1482	0	50720	
1483	0	35799	
1484	0	48232	
1485	0	35694	
1486	0	48028	
1487	0	35399	
1488	0	48298	
1489	0	35718	
1490	0	45076	
1491	0	34322	
1492	0	46944	
1493	0	36000	
1494	0	45826	
1495	0	34484	
1496	0	46408	
1497	0	35801	
1498	0	52576	
1499	0	35568	
1500	0	46032	
1501	0	35884	
1502	0	48904	
1503	0	35832	
1504	0	44202	
1505	0	36039	
1506	0	49924	
1507	0	34075	
1508	0	44096	
1509	0	35750	
1510	0	48325	
1511	0	34850	
1512	0	44488	
1513	0	35911	
1514	0	49920	
1515	0	34344	
1516	0	44140	
1517	0	35822	
1518	0	53874	
1519	0	35688	
1520	0	44344	
1521	0	35885	
1522	0	49496	
1523	0	35842	
1524	0	43436	
1525	0	35650	
1526	0	46496	
1527	0	34512	
1528	0	40880	
1529	0	36048	
1530	0	47296	
1531	0	34706	
1532	0	42376	
1533	0	35736	
1534	0	49992	
1535	0	34583	
1536	0	40616	
1537	0	35954	
1538	0	51104	
1539	0	35783	
1540	0	40468	
1541	0	35975	
1542	0	45580	
1543	0	34620	
1544	0	39448	
1545	0	35920	
1546	0	43880	
1547	0	34612	
1548	0	39116	
1549	0	36129	
1550	0	43832	
1551	0	34584	
1552	0	38304	
1553	0	36208	
1554	0	51456	
1555	0	35128	
1556	0	39225	
1557	0	36358	
1558	0	47744	
1559	0	34591	
1560	0	34684	
1561	0	36174	
1562	0	40404	
1563	0	34930	
1564	0	34320	
1565	0	36028	
1566	0	49068	
1567	0	35962	
1568	0	36064	
1569	0	36082	
1570	0	50740	
1571	0	35330	
1572	0	36288	
1573	0	36496	
1574	0	52724	
1575	0	35866	
1576	0	36528	
1577	0	35900	
1578	0	51143	
1579	0	35512	
1580	0	36084	
1581	0	36492	
1582	0	45116	
1583	0	34885	
1584	0	36128	
1585	0	36388	
1586	0	15264	
1587	0	34252	
1588	0	33728	
1589	0	36162	
1590	0	52808	
1591	0	35404	
1592	0	37240	
1593	0	36088	
1594	0	48552	
1595	0	35484	
1596	0	35446	
1597	0	36496	
1598	0	55752	
1599	0	35908	
1600	0	34464	
1601	0	36236	
1602	0	50788	
1603	0	34457	
1604	0	33680	
1605	0	36222	
1606	0	49520	
1607	0	35396	
1608	0	34192	
1609	0	36445	
1610	0	49506	
1611	0	36144	
1612	0	35328	
1613	0	36076	
1614	0	54320	
1615	0	35846	
1616	0	32882	
1617	0	36375	
1618	0	41610	
1619	0	34732	
1620	0	32664	
1621	0	36202	
1622	0	51749	
1623	0	36292	
1624	0	33976	
1625	0	35881	
1626	0	55240	
1627	0	36041	
1628	0	33272	
1629	0	36144	
1630	0	47696	
1631	0	35052	
1632	0	33120	
1633	0	36251	
1634	0	35024	
1635	0	34813	
1636	0	31512	
1637	0	36189	
1638	0	48016	
1639	0	35308	
1640	0	32860	
1641	0	36246	
1642	0	46672	
1643	0	34999	
1644	0	31064	
1645	0	36478	
1646	0	48076	
1647	0	35356	
1648	0	33184	
1649	0	36636	
1650	0	53472	
1651	0	36257	
1652	0	30737	
1653	0	36566	
1654	0	54860	
1655	0	35846	
1656	0	30472	
1657	0	36802	
1658	0	53968	
1659	0	35979	
1660	0	31240	
1661	0	36237	
1662	0	30868	
1663	0	34662	
1664	0	30056	
1665	0	36551	
1666	0	32220	
1667	0	34528	
1668	0	29812	
1669	0	36387	
1670	0	51880	
1671	0	36248	
1672	0	29944	
1673	0	36506	
1674	0	53864	
1675	0	36170	
1676	0	32272	
1677	0	36485	
1678	0	49056	
1679	0	35890	
1680	0	30209	
1681	0	36117	
1682	0	53490	
1683	0	36078	
1684	0	30180	
1685	0	36400	
1686	0	41992	
1687	0	34955	
1688	0	30608	
1689	0	36676	
1690	0	45168	
1691	0	35387	
1692	0	30366	
1693	0	36148	
1694	0	46188	
1695	0	35478	
1696	0	30608	
1697	0	36848	
1698	0	38876	
1699	0	34716	
1700	0	28814	
1701	0	36870	
1702	0	51940	
1703	0	35876	
1704	0	29824	
1705	0	36584	
1706	0	52536	
1707	0	35942	
1708	0	30160	
1709	0	36459	
1710	0	31589	
1711	0	31239	
1712	0	32096	
1713	0	33561	
1714	0	52352	
1715	0	37439	
1716	0	31856	
1717	0	36910	
1718	0	43208	
1719	0	35565	
1720	0	28694	
1721	0	36776	
1722	0	26784	
1723	0	34326	
1724	0	28730	
1725	0	36600	
1726	0	49984	
1727	0	36370	
1728	0	28784	
1729	0	36620	
1730	0	29452	
1731	0	34744	
1732	0	28312	
1733	0	37104	
1734	0	32701	
1735	0	30603	
1736	0	31928	
1737	0	33380	
1738	0	48588	
1739	0	37574	
1740	0	27420	
1741	0	37030	
1742	0	41584	
1743	0	35502	
1744	0	28372	
1745	0	36841	
1746	0	17750	
1747	0	34658	
1748	0	28637	
1749	0	36392	
1750	0	46256	
1751	0	35938	
1752	0	28724	
1753	0	36384	
1754	0	40729	
1755	0	35677	
1756	0	27578	
1757	0	37784	
1758	0	41808	
1759	0	35710	
1760	0	27824	
1761	0	36672	
1762	0	40888	
1763	0	35399	
1764	0	26608	
1765	0	36602	
1766	0	4515	
1767	0	34624	
1768	0	25996	
1769	0	36896	
1770	0	36128	
1771	0	35737	
1772	0	28028	
1773	0	36491	
1774	0	44844	
1775	0	36429	
1776	0	26653	
1777	0	36516	
1778	0	38148	
1779	0	35736	
1780	0	24896	
1781	0	37335	
1782	0	49096	
1783	0	36326	
1784	0	27168	
1785	0	36504	
1786	0	16522	
1787	0	34175	
1788	0	25404	
1789	0	36818	
1790	0	45100	
1791	0	36528	
1792	0	26820	
1793	0	36836	
1794	0	44792	
1795	0	36170	
1796	0	28057	
1797	0	36816	
1798	0	33554	
1799	0	35593	
1800	0	25116	
1801	0	36632	
1802	0	42920	
1803	0	35812	
1804	0	25866	
1805	0	36660	
1806	0	12772	
1807	0	34630	
1808	0	24792	
1809	0	37088	
1810	0	42216	
1811	0	36450	
1812	0	25656	
1813	0	36244	
1814	0	40776	
1815	0	36452	
1816	0	23536	
1817	0	37415	
1818	0	42400	
1819	0	36344	
1820	0	24488	
1821	0	36832	
1822	0	33550	
1823	0	35748	
1824	0	22188	
1825	0	37440	
1826	0	32188	
1827	0	35726	
1828	0	22850	
1829	0	37069	
1830	0	30256	
1831	0	35970	
1832	0	22802	
1833	0	36794	
1834	0	8329	
1835	0	34924	
1836	0	21234	
1837	0	37259	
1838	0	26100	
1839	0	36114	
1840	0	22300	
1841	0	37306	
1842	0	41088	
1843	0	36344	
1844	0	21368	
1845	0	36830	
1846	0	19332	
1847	0	35204	
1848	0	22178	
1849	0	37894	
1850	0	33994	
1851	0	36284	
1852	0	20340	
1853	0	37013	
1854	0	4082	
1855	0	34476	
1856	0	22316	
1857	0	38162	
1858	0	5020	
1859	0	34738	
1860	0	21584	
1861	0	37208	
1862	0	5750	
1863	0	35335	
1864	0	20168	
1865	0	37624	
1866	0	21777	
1867	0	36240	
1868	0	19401	
1869	0	37136	
1870	0	3552	
1871	0	34877	
1872	0	19704	
1873	0	37053	
1874	0	30264	
1875	0	36472	
1876	0	21176	
1877	0	37377	
1878	0	3557	
1879	0	35056	
1880	0	19084	
1881	0	37097	
1882	0	3657	
1883	0	34688	
1884	0	19052	
1885	0	37552	
1886	0	29824	
1887	0	37029	
1888	0	18788	
1889	0	36916	
1890	0	14737	
1891	0	35516	
1892	0	19156	
1893	0	37856	
1894	0	29816	
1895	0	36771	
1896	0	18864	
1897	0	37212	
1898	0	3344	
1899	0	35146	
1900	0	17786	
1901	0	37474	
1902	0	12934	
1903	0	36250	
1904	0	19364	
1905	0	37697	
1906	0	20188	
1907	0	36828	
1908	0	18536	
1909	0	37353	
1910	0	10466	
1911	0	35794	
1912	0	17344	
1913	0	37632	
1914	0	24812	
1915	0	36824	
1916	0	17266	
1917	0	37670	
1918	0	20377	
1919	0	36772	
1920	0	18856	
1921	0	37398	
1922	0	3444	
1923	0	34592	
1924	0	19600	
1925	0	37140	
1926	0	18408	
1927	0	37312	
1928	0	17322	
1929	0	38013	
1930	0	10640	
1931	0	34426	
1932	0	22040	
1933	0	37221	
1934	0	19024	
1935	0	36898	
1936	0	18275	
1937	0	37440	
1938	0	8152	
1939	0	35568	
1940	0	16936	
1941	0	38028	
1942	0	21378	
1943	0	37208	
1944	0	18536	
1945	0	36952	
1946	0	3828	
1947	0	35429	
1948	0	16032	
1949	0	37673	
1950	0	19708	
1951	0	37078	
1952	0	18021	
1953	0	37641	
1954	0	3464	
1955	0	35082	
1956	0	16084	
1957	0	38492	
1958	0	24129	
1959	0	37584	
1960	0	17433	
1961	0	37630	
1962	0	16388	
1963	0	36648	
1964	0	16734	
1965	0	37728	
1966	0	4184	
1967	0	35316	
1968	0	16526	
1969	0	37615	
1970	0	3619	
1971	0	35207	
1972	0	15481	
1973	0	37944	
1974	0	5091	
1975	0	35026	
1976	0	14800	
1977	0	38116	
1978	0	12916	
1979	0	36992	
1980	0	15420	
1981	0	37332	
1982	0	14208	
1983	0	37060	
1984	0	14712	
1985	0	37792	
1986	0	6978	
1987	0	36928	
1988	0	14224	
1989	0	37725	
1990	0	4300	
1991	0	35216	
1992	0	14792	
1993	0	37426	
1994	0	4207	
1995	0	35552	
1996	0	11705	
1997	0	38425	
1998	0	6058	
1999	0	34776	
2000	0	15688	
2001	0	37812	
2002	0	18354	
2003	0	34309	
2004	0	17008	
2005	0	37331	
2006	0	4469	
2007	0	36260	
2008	0	16600	
2009	0	37872	
2010	0	9993	
2011	0	37664	
2012	0	13514	
2013	0	38185	
2014	0	4676	
2015	0	35117	
2016	0	14162	
2017	0	37561	
2018	0	6064	
2019	0	34754	
2020	0	14468	
2021	0	37620	
2022	0	4936	
2023	0	36271	
2024	0	12940	
2025	0	37874	
2026	0	6066	
2027	0	36728	
2028	0	12932	
2029	0	37833	
2030	0	4959	
2031	0	34909	
2032	0	12272	
2033	0	37994	
2034	0	5853	
2035	0	36333	
2036	0	11158	
2037	0	38488	
2038	0	4537	
2039	0	35192	
2040	0	10972	
2041	0	37720	
2042	0	6250	
2043	0	37480	
2044	0	11680	
2045	0	38600	
2046	0	4043	
2047	0	35541	
2048	0	10677	
2049	0	38482	
2050	0	4941	
2051	0	34947	
2052	0	9706	
2053	0	37948	
2054	0	4638	
2055	0	35485	
2056	0	10114	
2057	0	38749	
2058	0	5000	
2059	0	36530	
2060	0	9710	
2061	0	37881	
2062	0	4350	
2063	0	36466	
2064	0	10691	
2065	0	38605	
2066	0	5224	
2067	0	36669	
2068	0	10436	
2069	0	38396	
2070	0	5634	
2071	0	34823	
2072	0	8400	
2073	0	37978	
2074	0	6372	
2075	0	37844	
2076	0	10126	
2077	0	38407	
2078	0	4148	
2079	0	36541	
2080	0	9976	
2081	0	39068	
2082	0	7474	
2083	0	34793	
2084	0	8305	
2085	0	38372	
2086	0	4634	
2087	0	36776	
2088	0	9705	
2089	0	38791	
2090	0	4258	
2091	0	36356	
2092	0	10374	
2093	0	38855	
2094	0	42828	
2095	0	29804	
2096	0	11737	
2097	0	34545	
2098	0	8205	
2099	0	38592	
2100	0	10398	
2101	0	38976	
2102	0	8138	
2103	0	37856	
2104	0	10143	
2105	0	38589	
2106	0	4468	
2107	0	36346	
2108	0	7753	
2109	0	37846	
2110	0	6788	
2111	0	37924	
2112	0	9792	
2113	0	38418	
2114	0	5043	
2115	0	37245	
2116	0	9937	
2117	0	38688	
2118	0	4375	
2119	0	36708	
2120	0	9641	
2121	0	38802	
2122	0	6587	
2123	0	37672	
2124	0	9150	
2125	0	38089	
2126	0	5593	
2127	0	37352	
2128	0	9367	
2129	0	38390	
2130	0	5984	
2131	0	38085	
2132	0	9274	
2133	0	38245	
2134	0	6869	
2135	0	38055	
2136	0	9147	
2137	0	38548	
2138	0	7105	
2139	0	37972	
2140	0	9821	
2141	0	38919	
2142	0	7031	
2143	0	37806	
2144	0	8924	
2145	0	38520	
2146	0	7266	
2147	0	35236	
2148	0	7684	
2149	0	39239	
2150	0	5686	
2151	0	35740	
2152	0	7672	
2153	0	39202	
2154	0	4536	
2155	0	37024	
2156	0	8880	
2157	0	38784	
2158	0	6506	
2159	0	38050	
2160	0	8807	
2161	0	38725	
2162	0	14012	
2163	0	34260	
2164	0	7598	
2165	0	39552	
2166	0	5470	
2167	0	38080	
2168	0	8849	
2169	0	38786	
2170	0	5698	
2171	0	37954	
2172	0	8129	
2173	0	38530	
2174	0	4579	
2175	0	36300	
2176	0	6570	
2177	0	38806	
2178	0	5044	
2179	0	37663	
2180	0	6494	
2181	0	38256	
2182	0	4882	
2183	0	37800	
2184	0	8445	
2185	0	38832	
2186	0	30920	
2187	0	34495	
2188	0	7147	
2189	0	39156	
2190	0	5653	
2191	0	36397	
2192	0	7998	
2193	0	39288	
2194	0	21230	
2195	0	34906	
2196	0	7421	
2197	0	39444	
2198	0	4925	
2199	0	37339	
2200	0	8661	
2201	0	39344	
2202	0	13604	
2203	0	35335	
2204	0	7253	
2205	0	39480	
2206	0	5532	
2207	0	37528	
2208	0	6139	
2209	0	38355	
2210	0	15285	
2211	0	35536	
2212	0	7029	
2213	0	38957	
2214	0	5200	
2215	0	38131	
2216	0	8043	
2217	0	39237	
2218	0	5173	
2219	0	36738	
2220	0	7730	
2221	0	39429	
2222	0	10340	
2223	0	35674	
2224	0	6742	
2225	0	38944	
2226	0	5026	
2227	0	37410	
2228	0	7294	
2229	0	39348	
2230	0	17690	
2231	0	35376	
2232	0	6773	
2233	0	38864	
2234	0	5146	
2235	0	37770	
2236	0	7294	
2237	0	38884	
2238	0	49159	
2239	0	28590	
2240	0	14142	
2241	0	34552	
2242	0	16062	
2243	0	36585	
2244	0	8163	
2245	0	40376	
2246	0	6536	
2247	0	37088	
2248	0	6620	
2249	0	39366	
2250	0	4956	
2251	0	37140	
2252	0	7139	
2253	0	39232	
2254	0	4788	
2255	0	38008	
2256	0	7643	
2257	0	38979	
2258	0	34672	
2259	0	35276	
2260	0	6462	
2261	0	38798	
2262	0	21988	
2263	0	35446	
2264	0	6856	
2265	0	39828	
2266	0	6925	
2267	0	36888	
2268	0	6593	
2269	0	39054	
2270	0	4900	
2271	0	37532	
2272	0	7331	
2273	0	39744	
2274	0	4744	
2275	0	37696	
2276	0	6928	
2277	0	39200	
2278	0	14082	
2279	0	35456	
2280	0	6435	
2281	0	39140	
2282	0	5128	
2283	0	38113	
2284	0	6994	
2285	0	39476	
2286	0	5604	
2287	0	36996	
2288	0	6688	
2289	0	39308	
2290	0	20140	
2291	0	35516	
2292	0	6488	
2293	0	39320	
2294	0	5171	
2295	0	38211	
2296	0	6838	
2297	0	39025	
2298	0	4772	
2299	0	38016	
2300	0	6219	
2301	0	38612	
2302	0	6732	
2303	0	36596	
2304	0	6421	
2305	0	39916	
2306	0	16082	
2307	0	36133	
2308	0	6213	
2309	0	38790	
2310	0	5194	
2311	0	37519	
2312	0	6042	
2313	0	39520	
2314	0	4952	
2315	0	38407	
2316	0	6692	
2317	0	39326	
2318	0	6370	
2319	0	36653	
2320	0	6078	
2321	0	39532	
2322	0	29112	
2323	0	35604	
2324	0	6513	
2325	0	39736	
2326	0	17052	
2327	0	36404	
2328	0	6211	
2329	0	38888	
2330	0	7732	
2331	0	37056	
2332	0	6317	
2333	0	39448	
2334	0	5414	
2335	0	38564	
2336	0	6477	
2337	0	39890	
2338	0	7132	
2339	0	36925	
2340	0	5948	
2341	0	39464	
2342	0	7658	
2343	0	37446	
2344	0	5993	
2345	0	39104	
2346	0	5254	
2347	0	38053	
2348	0	5846	
2349	0	39502	
2350	0	5300	
2351	0	37691	
2352	0	6126	
2353	0	39296	
2354	0	5012	
2355	0	38113	
2356	0	5724	
2357	0	38848	
2358	0	5262	
2359	0	37904	
2360	0	6545	
2361	0	40038	
2362	0	4884	
2363	0	38444	
2364	0	5626	
2365	0	39280	
2366	0	43449	
2367	0	29692	
2368	0	11336	
2369	0	34937	
2370	0	6713	
2371	0	39688	
2372	0	6597	
2373	0	40007	
2374	0	8896	
2375	0	37182	
2376	0	5846	
2377	0	39982	
2378	0	12122	
2379	0	37100	
2380	0	5811	
2381	0	39540	
2382	0	36168	
2383	0	36103	
2384	0	6298	
2385	0	39816	
2386	0	35356	
2387	0	35847	
2388	0	6208	
2389	0	40160	
2390	0	5813	
2391	0	38936	
2392	0	5766	
2393	0	39284	
2394	0	26896	
2395	0	35876	
2396	0	5940	
2397	0	39614	
2398	0	39909	
2399	0	35996	
2400	0	6068	
2401	0	39682	
2402	0	5774	
2403	0	39140	
2404	0	5730	
2405	0	40089	
2406	0	38489	
2407	0	35558	
2408	0	5776	
2409	0	39815	
2410	0	41984	
2411	0	36008	
2412	0	6106	
2413	0	40256	
2414	0	6491	
2415	0	38313	
2416	0	5878	
2417	0	40300	
2418	0	10485	
2419	0	37558	
2420	0	5680	
2421	0	39751	
2422	0	5771	
2423	0	38919	
2424	0	5675	
2425	0	40124	
2426	0	33081	
2427	0	36291	
2428	0	5507	
2429	0	40309	
2430	0	12172	
2431	0	37450	
2432	0	5460	
2433	0	40809	
2434	0	6824	
2435	0	38697	
2436	0	5650	
2437	0	40000	
2438	0	40196	
2439	0	36429	
2440	0	5905	
2441	0	39888	
2442	0	43523	
2443	0	36157	
2444	0	6247	
2445	0	40420	
2446	0	30564	
2447	0	36497	
2448	0	5936	
2449	0	40016	
2450	0	6616	
2451	0	39388	
2452	0	5871	
2453	0	40096	
2454	0	11348	
2455	0	37497	
2456	0	5676	
2457	0	38864	
2458	0	34968	
2459	0	36174	
2460	0	5764	
2461	0	40714	
2462	0	7369	
2463	0	39424	
2464	0	5824	
2465	0	40391	
2466	0	41540	
2467	0	35965	
2468	0	5738	
2469	0	40308	
2470	0	12099	
2471	0	38026	
2472	0	5924	
2473	0	40754	
2474	0	41498	
2475	0	30048	
2476	0	19000	
2477	0	33814	
2478	0	36404	
2479	0	37013	
2480	0	7135	
2481	0	40664	
2482	0	7336	
2483	0	39090	
2484	0	5889	
2485	0	40320	
2486	0	8781	
2487	0	38469	
2488	0	5756	
2489	0	40675	
2490	0	43066	
2491	0	36216	
2492	0	5899	
2493	0	40519	
2494	0	8335	
2495	0	38804	
2496	0	5925	
2497	0	40528	
2498	0	6548	
2499	0	38964	
2500	0	5466	
2501	0	40890	
2502	0	7809	
2503	0	38957	
2504	0	5992	
2505	0	40158	
2506	0	11664	
2507	0	38162	
2508	0	5785	
2509	0	40310	
2510	0	8085	
2511	0	38918	
2512	0	6102	
2513	0	40168	
2514	0	45112	
2515	0	35442	
2516	0	6141	
2517	0	40668	
2518	0	9774	
2519	0	38722	
2520	0	6424	
2521	0	40045	
2522	0	26068	
2523	0	37420	
2524	0	6144	
2525	0	40277	
2526	0	7659	
2527	0	38806	
2528	0	5956	
2529	0	40455	
2530	0	43216	
2531	0	28408	
2532	0	15812	
2533	0	34248	
2534	0	26372	
2535	0	38320	
2536	0	7954	
2537	0	40848	
2538	0	45196	
2539	0	36329	
2540	0	6464	
2541	0	40788	
2542	0	24352	
2543	0	38150	
2544	0	6593	
2545	0	40552	
2546	0	43590	
2547	0	35930	
2548	0	6361	
2549	0	40588	
2550	0	12241	
2551	0	37920	
2552	0	6170	
2553	0	41217	
2554	0	42752	
2555	0	35065	
2556	0	7044	
2557	0	38148	
2558	0	25756	
2559	0	37464	
2560	0	7556	
2561	0	40749	
2562	0	40268	
2563	0	37148	
2564	0	7104	
2565	0	40672	
2566	0	43329	
2567	0	36740	
2568	0	6429	
2569	0	41060	
2570	0	11338	
2571	0	38478	
2572	0	6746	
2573	0	40572	
2574	0	13712	
2575	0	39096	
2576	0	6638	
2577	0	40708	
2578	0	9661	
2579	0	39176	
2580	0	6498	
2581	0	40676	
2582	0	14276	
2583	0	38616	
2584	0	7176	
2585	0	40252	
2586	0	41346	
2587	0	36444	
2588	0	6621	
2589	0	40864	
2590	0	11925	
2591	0	39303	
2592	0	6795	
2593	0	40288	
2594	0	13400	
2595	0	38208	
2596	0	6076	
2597	0	40466	
2598	0	12128	
2599	0	39017	
2600	0	7172	
2601	0	40701	
2602	0	29196	
2603	0	38064	
2604	0	6448	
2605	0	41504	
2606	0	41384	
2607	0	36589	
2608	0	7274	
2609	0	40989	
2610	0	41124	
2611	0	36970	
2612	0	7046	
2613	0	41218	
2614	0	16813	
2615	0	38016	
2616	0	7352	
2617	0	40874	
2618	0	20594	
2619	0	38255	
2620	0	6724	
2621	0	41216	
2622	0	42976	
2623	0	36290	
2624	0	6705	
2625	0	41000	
2626	0	12352	
2627	0	38786	
2628	0	7008	
2629	0	41232	
2630	0	11933	
2631	0	39188	
2632	0	6565	
2633	0	41330	
2634	0	29284	
2635	0	37956	
2636	0	7181	
2637	0	41201	
2638	0	25168	
2639	0	38484	
2640	0	7733	
2641	0	40896	
2642	0	16138	
2643	0	38330	
2644	0	6192	
2645	0	41036	
2646	0	43432	
2647	0	36664	
2648	0	7140	
2649	0	41095	
2650	0	33184	
2651	0	37946	
2652	0	7370	
2653	0	41096	
2654	0	42468	
2655	0	36270	
2656	0	7573	
2657	0	38656	
2658	0	43132	
2659	0	36338	
2660	0	8566	
2661	0	41309	
2662	0	19320	
2663	0	38692	
2664	0	7614	
2665	0	41355	
2666	0	41836	
2667	0	36524	
2668	0	7542	
2669	0	41076	
2670	0	13352	
2671	0	39489	
2672	0	7228	
2673	0	41196	
2674	0	15627	
2675	0	38919	
2676	0	8478	
2677	0	41160	
2678	0	41912	
2679	0	35594	
2680	0	7647	
2681	0	41225	
2682	0	16132	
2683	0	39458	
2684	0	7812	
2685	0	41434	
2686	0	37712	
2687	0	37493	
2688	0	7540	
2689	0	41680	
2690	0	41792	
2691	0	36688	
2692	0	7818	
2693	0	41336	
2694	0	20348	
2695	0	38964	
2696	0	8365	
2697	0	41159	
2698	0	44916	
2699	0	36054	
2700	0	8458	
2701	0	40988	
2702	0	42584	
2703	0	36056	
2704	0	8470	
2705	0	41280	
2706	0	29336	
2707	0	39081	
2708	0	8824	
2709	0	41988	
2710	0	13889	
2711	0	39589	
2712	0	7777	
2713	0	40997	
2714	0	39132	
2715	0	37383	
2716	0	9570	
2717	0	39584	
2718	0	9118	
2719	0	40711	
2720	0	9192	
2721	0	38180	
2722	0	8060	
2723	0	40164	
2724	0	15200	
2725	0	34696	
2726	0	39012	
2727	0	35781	
2728	0	9924	
2729	0	42914	
2730	0	26681	
2731	0	39026	
2732	0	9904	
2733	0	35984	
2734	0	6546	
2735	0	43686	
2736	0	10374	
2737	0	35171	
2738	0	8500	
2739	0	41138	
2740	0	10738	
2741	0	38218	
2742	0	42465	
2743	0	28575	
2744	0	16071	
2745	0	36705	
2746	0	34930	
2747	0	38952	
2748	0	5482	
2749	0	43286	
2750	0	37552	
2751	0	38858	
2752	0	3801	
2753	0	42240	
2754	0	38724	
2755	0	28612	
2756	0	16413	
2757	0	33862	
2758	0	42016	
2759	0	29236	
2760	0	16744	
2761	0	35408	
2762	0	17560	
2763	0	40364	
2764	0	7612	
2765	0	42701	
2766	0	41684	
2767	0	36338	
2768	0	10820	
2769	0	41524	
2770	0	20386	
2771	0	38864	
2772	0	4372	
2773	0	43040	
2774	0	30152	
2775	0	38829	
2776	0	7806	
2777	0	41530	
2778	0	39972	
2779	0	29847	
2780	0	16416	
2781	0	34438	
2782	0	33712	
2783	0	39216	
2784	0	11584	
2785	0	41508	
2786	0	34020	
2787	0	31106	
2788	0	21728	
2789	0	34633	
2790	0	36152	
2791	0	37810	
2792	0	12748	
2793	0	40455	
2794	0	35448	
2795	0	36825	
2796	0	13784	
2797	0	38942	
2798	0	37138	
2799	0	30754	
2800	0	23544	
2801	0	34226	
2802	0	19904	
2803	0	40308	
2804	0	12404	
2805	0	41468	
2806	0	28192	
2807	0	39261	
2808	0	11127	
2809	0	40967	
2810	0	36305	
2811	0	36061	
2812	0	10350	
2813	0	41116	
2814	0	38964	
2815	0	35804	
2816	0	12532	
2817	0	38564	
2818	0	40264	
2819	0	35792	
2820	0	11128	
2821	0	39934	
2822	0	38868	
2823	0	36533	
2824	0	11858	
2825	0	40583	
2826	0	38448	
2827	0	29990	
2828	0	22008	
2829	0	33408	
2830	0	24548	
2831	0	39921	
2832	0	12212	
2833	0	41497	
2834	0	37040	
2835	0	29939	
2836	0	22022	
2837	0	34212	
2838	0	25112	
2839	0	40455	
2840	0	13232	
2841	0	41582	
2842	0	38344	
2843	0	29191	
2844	0	22916	
2845	0	33223	
2846	0	38944	
2847	0	36992	
2848	0	13628	
2849	0	40400	
2850	0	39800	
2851	0	37232	
2852	0	13444	
2853	0	40036	
2854	0	37781	
2855	0	37372	
2856	0	13676	
2857	0	37818	
2858	0	42773	
2859	0	37940	
2860	0	14828	
2861	0	36996	
2862	0	39936	
2863	0	36308	
2864	0	17085	
2865	0	37232	
2866	0	37586	
2867	0	40276	
2868	0	16633	
2869	0	36056	
2870	0	39708	
2871	0	36964	
2872	0	21666	
2873	0	32628	
2874	0	34495	
2875	0	33336	
2876	0	31179	
2877	0	30401	
2878	0	33584	
2879	0	31589	
2880	0	19720	
2881	0	34596	
2882	0	33220	
2883	0	31012	
2884	0	7268	
2885	0	44130	
2886	0	12936	
2887	0	39775	
2888	0	5371	
2889	0	48932	
2890	0	6147	
2891	0	39640	
2892	0	4738	
2893	0	46446	
2894	0	4098	
2895	0	42128	
2896	0	7697	
2897	0	41930	
2898	0	11069	
2899	0	44312	
2900	0	7572	
2901	0	46720	
2902	0	2003	
2903	0	45063	
2904	0	5669	
2905	0	40388	
2906	0	8180	
2907	0	45112	
2908	0	6799	
2909	0	45872	
2910	0	8678	
2911	0	45416	
2912	0	6876	
2913	0	45210	
2914	0	4749	
2915	0	48793	
2916	0	3118	
2917	0	44188	
2918	0	6630	
2919	0	46800	
2920	0	8878	
2921	0	46196	
2922	0	6596	
2923	0	45669	
2924	0	9385	
2925	0	46672	
2926	0	6739	
2927	0	45465	
2928	0	11060	
2929	0	49796	
2930	0	6389	
2931	0	43636	
2932	0	11376	
2933	0	45248	
2934	0	8537	
2935	0	47336	
2936	0	6353	
2937	0	41980	
2938	0	7567	
2939	0	45225	
2940	0	5236	
2941	0	43460	
2942	0	6681	
2943	0	44818	
2944	0	4095	
2945	0	42760	
2946	0	5217	
2947	0	43398	
2948	0	3045	
2949	0	39928	
2950	0	5474	
2951	0	43527	
2952	0	3796	
2953	0	42503	
2954	0	4887	
2955	0	42416	
2956	0	3518	
2957	0	44333	
2958	0	11220	
2959	0	41321	
2960	0	3296	
2961	0	44574	
2962	0	10646	
2963	0	40836	
2964	0	3795	
2965	0	45400	
2966	0	7910	
2967	0	41952	
2968	0	4029	
2969	0	44120	
2970	0	9692	
2971	0	41472	
2972	0	9837	
2973	0	41739	
2974	0	10846	
2975	0	40512	
2976	0	5155	
2977	0	44348	
2978	0	15696	
2979	0	40820	
2980	0	4340	
2981	0	44840	
2982	0	20136	
2983	0	40744	
2984	0	4020	
2985	0	45196	
2986	0	19565	
2987	0	40632	
2988	0	4261	
2989	0	44516	
2990	0	19396	
2991	0	41176	
2992	0	4404	
2993	0	45532	
2994	0	15946	
2995	0	40471	
2996	0	4894	
2997	0	44860	
2998	0	15576	
2999	0	40780	
3000	0	5382	
3001	0	44280	
3002	0	17778	
3003	0	40264	
3004	0	5359	
3005	0	45433	
3006	0	17908	
3007	0	40836	
3008	0	7928	
3009	0	44036	
3010	0	19844	
3011	0	40424	
3012	0	6964	
3013	0	44102	
3014	0	26268	
3015	0	41016	
3016	0	6523	
3017	0	43888	
3018	0	32770	
3019	0	40744	
3020	0	6456	
3021	0	44679	
3022	0	34656	
3023	0	39913	
3024	0	8799	
3025	0	43442	
3026	0	39128	
3027	0	36244	
3028	0	8224	
3029	0	43636	
3030	0	39816	
3031	0	38992	
3032	0	9505	
3033	0	43938	
3034	0	38432	
3035	0	36312	
3036	0	9333	
3037	0	43380	
3038	0	37064	
3039	0	36608	
3040	0	9792	
3041	0	43015	
3042	0	35388	
3043	0	25680	
3044	0	31506	
3045	0	32004	
3046	0	24476	
3047	0	41800	
3048	0	14248	
3049	0	43216	
3050	0	36864	
3051	0	34849	
3052	0	14777	
3053	0	41113	
3054	0	26472	
3055	0	44038	
3056	0	16557	
3057	0	37958	
3058	0	34913	
3059	0	36784	
3060	0	16466	
3061	0	38358	
3062	0	36256	
3063	0	38544	
3064	0	12944	
3065	0	42880	
3066	0	35152	
3067	0	29294	
3068	0	23748	
3069	0	38604	
3070	0	32970	
3071	0	38328	
3072	0	7090	
3073	0	46928	
3074	0	31040	
3075	0	43942	
3076	0	4786	
3077	0	50856	
3078	0	18514	
3079	0	38724	
3080	0	4037	
3081	0	47784	
3082	0	11610	
3083	0	41848	
3084	0	5706	
3085	0	56368	
3086	0	4580	
3087	0	46445	
3088	0	7825	
3089	0	48332	
3090	0	5463	
3091	0	43856	
3092	0	12788	
3093	0	53632	
3094	0	7105	
3095	0	53756	
3096	0	4991	
3097	0	47973	
3098	0	4190	
3099	0	49552	
3100	0	9968	
3101	0	52528	
3102	0	9817	
3103	0	50014	
3104	0	5846	
3105	0	46068	
3106	0	5017	
3107	0	50368	
3108	0	6436	
3109	0	40824	
3110	0	4894	
3111	0	50424	
3112	0	6988	
3113	0	42932	
3114	0	7659	
3115	0	49003	
3116	0	6661	
3117	0	47048	
3118	0	5819	
3119	0	51548	
3120	0	6133	
3121	0	47520	
3122	0	9806	
3123	0	55216	
3124	0	7008	
3125	0	46025	
3126	0	6730	
3127	0	55261	
3128	0	6393	
3129	0	45661	
3130	0	6213	
3131	0	47972	
3132	0	4929	
3133	0	46392	
3134	0	4287	
3135	0	45660	
3136	0	4183	
3137	0	45120	
3138	0	3240	
3139	0	45368	
3140	0	4216	
3141	0	45253	
3142	0	3687	
3143	0	46124	
3144	0	11277	
3145	0	44133	
3146	0	6034	
3147	0	44050	
3148	0	7896	
3149	0	46424	
3150	0	17558	
3151	0	41209	
3152	0	6113	
3153	0	47800	
3154	0	18320	
3155	0	42201	
3156	0	6937	
3157	0	45960	
3158	0	18804	
3159	0	41988	
3160	0	9052	
3161	0	46180	
3162	0	24348	
3163	0	42584	
3164	0	9452	
3165	0	46066	
3166	0	26624	
3167	0	42148	
3168	0	11492	
3169	0	46252	
3170	0	28090	
3171	0	41888	
3172	0	11382	
3173	0	47064	
3174	0	29800	
3175	0	40244	
3176	0	10746	
3177	0	47720	
3178	0	33930	
3179	0	40502	
3180	0	9022	
3181	0	47356	
3182	0	32652	
3183	0	41746	
3184	0	9862	
3185	0	47096	
3186	0	34306	
3187	0	41606	
3188	0	11872	
3189	0	46085	
3190	0	33984	
3191	0	41124	
3192	0	12908	
3193	0	47424	
3194	0	34025	
3195	0	41256	
3196	0	14624	
3197	0	46280	
3198	0	34464	
3199	0	41584	
3200	0	15421	
3201	0	46260	
3202	0	32968	
3203	0	41776	
3204	0	15184	
3205	0	46372	
3206	0	33744	
3207	0	35738	
3208	0	14660	
3209	0	47824	
3210	0	32715	
3211	0	37106	
3212	0	14450	
3213	0	47884	
3214	0	34803	
3215	0	40986	
3216	0	15913	
3217	0	47132	
3218	0	33968	
3219	0	36937	
3220	0	16018	
3221	0	47696	
3222	0	33497	
3223	0	37044	
3224	0	17440	
3225	0	45533	
3226	0	34013	
3227	0	42209	
3228	0	17482	
3229	0	46409	
3230	0	33671	
3231	0	41573	
3232	0	18504	
3233	0	46176	
3234	0	33890	
3235	0	26220	
3236	0	31162	
3237	0	37721	
3238	0	33872	
3239	0	41017	
3240	0	19528	
3241	0	47426	
3242	0	34236	
3243	0	36410	
3244	0	19584	
3245	0	47760	
3246	0	34436	
3247	0	28296	
3248	0	31545	
3249	0	37068	
3250	0	32432	
3251	0	43192	
3252	0	20960	
3253	0	46696	
3254	0	34302	
3255	0	41711	
3256	0	21116	
3257	0	44576	
3258	0	34425	
3259	0	37296	
3260	0	19444	
3261	0	46260	
3262	0	35309	
3263	0	24472	
3264	0	30660	
3265	0	36292	
3266	0	32843	
3267	0	42436	
3268	0	22988	
3269	0	47196	
3270	0	33352	
3271	0	42276	
3272	0	22202	
3273	0	47192	
3274	0	33556	
3275	0	41354	
3276	0	23113	
3277	0	46568	
3278	0	33892	
3279	0	25412	
3280	0	30893	
3281	0	36336	
3282	0	32280	
3283	0	43670	
3284	0	24308	
3285	0	47496	
3286	0	34034	
3287	0	42074	
3288	0	22881	
3289	0	47385	
3290	0	34394	
3291	0	27040	
3292	0	31224	
3293	0	37772	
3294	0	32670	
3295	0	36880	
3296	0	27201	
3297	0	46220	
3298	0	34811	
3299	0	38971	
3300	0	25668	
3301	0	46825	
3302	0	33957	
3303	0	37522	
3304	0	25457	
3305	0	46400	
3306	0	34253	
3307	0	36658	
3308	0	26824	
3309	0	47252	
3310	0	34216	
3311	0	42384	
3312	0	26672	
3313	0	48228	
3314	0	33952	
3315	0	24440	
3316	0	30569	
3317	0	37050	
3318	0	32684	
3319	0	43112	
3320	0	28104	
3321	0	48368	
3322	0	32964	
3323	0	27707	
3324	0	31856	
3325	0	37746	
3326	0	32046	
3327	0	42942	
3328	0	29786	
3329	0	48504	
3330	0	33761	
3331	0	41072	
3332	0	28496	
3333	0	48388	
3334	0	33712	
3335	0	25278	
3336	0	31212	
3337	0	36260	
3338	0	32255	
3339	0	43827	
3340	0	30202	
3341	0	49136	
3342	0	34136	
3343	0	26713	
3344	0	32358	
3345	0	37216	
3346	0	32744	
3347	0	43778	
3348	0	30404	
3349	0	49340	
3350	0	34234	
3351	0	42778	
3352	0	29412	
3353	0	48480	
3354	0	34340	
3355	0	26543	
3356	0	31032	
3357	0	40272	
3358	0	32207	
3359	0	43132	
3360	0	30950	
3361	0	49576	
3362	0	34390	
3363	0	40263	
3364	0	29848	
3365	0	49500	
3366	0	34336	
3367	0	38678	
3368	0	30196	
3369	0	51812	
3370	0	32850	
3371	0	26828	
3372	0	32070	
3373	0	39480	
3374	0	31998	
3375	0	43982	
3376	0	33804	
3377	0	49816	
3378	0	33808	
3379	0	42728	
3380	0	32572	
3381	0	50228	
3382	0	34332	
3383	0	36616	
3384	0	32280	
3385	0	48960	
3386	0	34784	
3387	0	28106	
3388	0	30861	
3389	0	38140	
3390	0	32700	
3391	0	43628	
3392	0	33970	
3393	0	50896	
3394	0	34264	
3395	0	41516	
3396	0	32616	
3397	0	51648	
3398	0	34068	
3399	0	39252	
3400	0	33292	
3401	0	49720	
3402	0	34260	
3403	0	40360	
3404	0	33989	
3405	0	51756	
3406	0	33496	
3407	0	36340	
3408	0	33348	
3409	0	49460	
3410	0	34153	
3411	0	38437	
3412	0	33682	
3413	0	48880	
3414	0	34880	
3415	0	38512	
3416	0	33255	
3417	0	50183	
3418	0	34512	
3419	0	26564	
3420	0	31602	
3421	0	40442	
3422	0	32816	
3423	0	43264	
3424	0	35426	
3425	0	51832	
3426	0	33680	
3427	0	24892	
3428	0	30862	
3429	0	38788	
3430	0	32473	
3431	0	43362	
3432	0	36034	
3433	0	51104	
3434	0	34363	
3435	0	25956	
3436	0	31185	
3437	0	39689	
3438	0	32036	
3439	0	43429	
3440	0	35335	
3441	0	50708	
3442	0	34656	
3443	0	41408	
3444	0	33996	
3445	0	53632	
3446	0	33426	
3447	0	37584	
3448	0	33278	
3449	0	51996	
3450	0	34178	
3451	0	37544	
3452	0	33961	
3453	0	51776	
3454	0	35290	
3455	0	38598	
3456	0	34000	
3457	0	51712	
3458	0	34136	
3459	0	39268	
3460	0	33897	
3461	0	51592	
3462	0	34676	
3463	0	43570	
3464	0	35424	
3465	0	52884	
3466	0	34164	
3467	0	26096	
3468	0	30855	
3469	0	41776	
3470	0	32732	
3471	0	43928	
3472	0	35604	
3473	0	53720	
3474	0	33946	
3475	0	42868	
3476	0	34556	
3477	0	54176	
3478	0	34464	
3479	0	37305	
3480	0	33764	
3481	0	53792	
3482	0	34276	
3483	0	40164	
3484	0	34368	
3485	0	54500	
3486	0	34675	
3487	0	25473	
3488	0	31840	
3489	0	40932	
3490	0	32915	
3491	0	39943	
3492	0	35228	
3493	0	53988	
3494	0	35540	
3495	0	41556	
3496	0	34590	
3497	0	55698	
3498	0	33992	
3499	0	40816	
3500	0	34085	
3501	0	54784	
3502	0	34454	
3503	0	25660	
3504	0	31779	
3505	0	40688	
3506	0	33100	
3507	0	43104	
3508	0	35930	
3509	0	56768	
3510	0	34247	
3511	0	43450	
3512	0	34688	
3513	0	54840	
3514	0	34567	
3515	0	37500	
3516	0	33237	
3517	0	54200	
3518	0	34311	
3519	0	41811	
3520	0	34970	
3521	0	55368	
3522	0	34525	
3523	0	37088	
3524	0	33460	
3525	0	52648	
3526	0	34503	
3527	0	43668	
3528	0	34604	
3529	0	57872	
3530	0	34572	
3531	0	43000	
3532	0	34968	
3533	0	59400	
3534	0	34384	
3535	0	42776	
3536	0	34290	
3537	0	55540	
3538	0	34376	
3539	0	38228	
3540	0	33936	
3541	0	61188	
3542	0	34978	
3543	0	43129	
3544	0	34865	
3545	0	59192	
3546	0	34448	
3547	0	40829	
3548	0	33769	
3549	0	61012	
3550	0	35324	
3551	0	42554	
3552	0	34740	
3553	0	61068	
3554	0	33522	
3555	0	43344	
3556	0	34442	
3557	0	57632	
3558	0	34311	
3559	0	39572	
3560	0	33572	
3561	0	59768	
3562	0	34869	
3563	0	43346	
3564	0	35010	
3565	0	57388	
3566	0	34628	
3567	0	40442	
3568	0	34311	
3569	0	59120	
3570	0	34940	
3571	0	43525	
3572	0	34674	
3573	0	59696	
3574	0	33964	
3575	0	42890	
3576	0	34992	
3577	0	59048	
3578	0	34388	
3579	0	43240	
3580	0	34924	
3581	0	60152	
3582	0	34422	
3583	0	42792	
3584	0	34740	
3585	0	58704	
3586	0	33927	
3587	0	43380	
3588	0	35032	
3589	0	62778	
3590	0	34937	
3591	0	39120	
3592	0	33085	
3593	0	57120	
3594	0	34633	
3595	0	43584	
3596	0	34876	
3597	0	61092	
3598	0	35013	
3599	0	42872	
3600	0	34688	
3601	0	57472	
3602	0	34311	
3603	0	43334	
3604	0	34440	
3605	0	62042	
3606	0	34676	
3607	0	40656	
3608	0	34072	
3609	0	60966	
3610	0	35273	
3611	0	43268	
3612	0	35096	
3613	0	62928	
3614	0	34456	
3615	0	43015	
3616	0	34545	
3617	0	62178	
3618	0	34597	
3619	0	43724	
3620	0	34456	
3621	0	58728	
3622	0	34504	
3623	0	42620	
3624	0	34646	
3625	0	62562	
3626	0	34124	
3627	0	43489	
3628	0	34993	
3629	0	62116	
3630	0	34616	
3631	0	43280	
3632	0	34968	
3633	0	62536	
3634	0	34282	
3635	0	43692	
3636	0	35244	
3637	0	61114	
3638	0	34438	
3639	0	43256	
3640	0	34909	
3641	0	63032	
3642	0	34556	
3643	0	43386	
3644	0	34571	
3645	0	61608	
3646	0	34594	
3647	0	41586	
3648	0	34248	
3649	0	63448	
3650	0	35378	
3651	0	43218	
3652	0	34109	
3653	0	62279	
3654	0	34790	
3655	0	43786	
3656	0	34876	
3657	0	62872	
3658	0	33868	
3659	0	43838	
3660	0	34789	
3661	0	62680	
3662	0	34566	
3663	0	39739	
3664	0	33166	
3665	0	58825	
3666	0	35502	
3667	0	39984	
3668	0	34253	
3669	0	63112	
3670	0	34823	
3671	0	39105	
3672	0	33581	
3673	0	63528	
3674	0	34472	
3675	0	43568	
3676	0	35108	
3677	0	62880	
3678	0	34859	
3679	0	44414	
3680	0	34044	
3681	0	62282	
3682	0	34534	
3683	0	44708	
3684	0	34465	
3685	0	62316	
3686	0	35004	
3687	0	40606	
3688	0	34635	
3689	0	63008	
3690	0	35274	
3691	0	45056	
3692	0	34616	
3693	0	61540	
3694	0	34631	
3695	0	39418	
3696	0	34015	
3697	0	62632	
3698	0	35268	
3699	0	39596	
3700	0	33568	
3701	0	63032	
3702	0	35484	
3703	0	43908	
3704	0	34106	
3705	0	62632	
3706	0	33608	
3707	0	45928	
3708	0	36304	
3709	0	61377	
3710	0	34096	
3711	0	45866	
3712	0	35090	
3713	0	57400	
3714	0	34178	
3715	0	46490	
3716	0	35170	
3717	0	57644	
3718	0	32149	
3719	0	48672	
3720	0	35212	
3721	0	59586	
3722	0	27354	
3723	0	46490	
3724	0	36656	
3725	0	55448	
3726	0	33633	
3727	0	49820	
3728	0	36280	
3729	0	61624	
3730	0	32477	
3731	0	43621	
3732	0	33287	
3733	0	62084	
3734	0	33056	
3735	0	26116	
3736	0	29012	
3737	0	62912	
3738	0	35832	
3739	0	51160	
3740	0	22716	
3741	0	64152	
3742	0	33938	
3743	0	48410	
3744	0	26132	
3745	0	63024	
3746	0	34016	
3747	0	51017	
3748	0	33392	
3749	0	62052	
3750	0	32692	
3751	0	52304	
3752	0	36471	
3753	0	61944	
3754	0	34936	
3755	0	48676	
3756	0	35890	
3757	0	62396	
3758	0	33282	
3759	0	51002	
3760	0	36969	
3761	0	62468	
3762	0	35251	
3763	0	54320	
3764	0	32832	
3765	0	62034	
3766	0	32000	
3767	0	48601	
3768	0	30152	
3769	0	62784	
3770	0	35880	
3771	0	59660	
3772	0	32232	
3773	0	62136	
3774	0	35744	
3775	0	52972	
3776	0	33784	
3777	0	62000	
3778	0	35320	
3779	0	54279	
3780	0	34480	
3781	0	62152	
3782	0	33182	
3783	0	54604	
3784	0	32429	
3785	0	62304	
3786	0	35439	
3787	0	59593	
3788	0	36396	
3789	0	62200	
3790	0	32096	
3791	0	51360	
3792	0	36196	
3793	0	61364	
3794	0	34286	
3795	0	49088	
3796	0	36252	
3797	0	61447	
3798	0	34469	
3799	0	49512	
3800	0	36592	
3801	0	61336	
3802	0	34868	
3803	0	46708	
3804	0	35532	
3805	0	60792	
3806	0	33696	
3807	0	46220	
3808	0	35462	
3809	0	60200	
3810	0	34276	
3811	0	44480	
3812	0	35335	
3813	0	60792	
3814	0	35800	
3815	0	43890	
3816	0	35527	
3817	0	60532	
3818	0	34859	
3819	0	41877	
3820	0	33605	
3821	0	60960	
3822	0	35156	
3823	0	27982	
3824	0	31318	
3825	0	58224	
3826	0	33956	
3827	0	49490	
3828	0	35656	
3829	0	61408	
3830	0	35170	
3831	0	44732	
3832	0	35303	
3833	0	60345	
3834	0	35721	
3835	0	38788	
3836	0	33604	
3837	0	61272	
3838	0	35781	
3839	0	44972	
3840	0	35130	
3841	0	60280	
3842	0	35096	
3843	0	44208	
3844	0	35335	
3845	0	60176	
3846	0	35444	
3847	0	45736	
3848	0	34240	
3849	0	59944	
3850	0	35552	
3851	0	44884	
3852	0	35240	
3853	0	60024	
3854	0	35988	
3855	0	44242	
3856	0	35677	
3857	0	59996	
3858	0	35217	
3859	0	44720	
3860	0	34392	
3861	0	60328	
3862	0	35204	
3863	0	45286	
3864	0	35640	
3865	0	59910	
3866	0	34710	
3867	0	45627	
3868	0	35702	
3869	0	59776	
3870	0	34780	
3871	0	45459	
3872	0	35984	
3873	0	59464	
3874	0	35016	
3875	0	45408	
3876	0	35886	
3877	0	59932	
3878	0	35428	
3879	0	45420	
3880	0	35612	
3881	0	59344	
3882	0	35364	
3883	0	44413	
3884	0	36140	
3885	0	59176	
3886	0	35399	
3887	0	45552	
3888	0	35508	
3889	0	59184	
3890	0	35880	
3891	0	44592	
3892	0	35645	
3893	0	59220	
3894	0	36032	
3895	0	45588	
3896	0	35240	
3897	0	59024	
3898	0	36102	
3899	0	46184	
3900	0	34740	
3901	0	58912	
3902	0	35364	
3903	0	45132	
3904	0	35580	
3905	0	59156	
3906	0	35200	
3907	0	45482	
3908	0	35002	
3909	0	59120	
3910	0	36082	
3911	0	46344	
3912	0	34804	
3913	0	58887	
3914	0	35032	
3915	0	45964	
3916	0	35240	
3917	0	58428	
3918	0	35110	
3919	0	46808	
3920	0	34772	
3921	0	58496	
3922	0	35496	
3923	0	45490	
3924	0	35584	
3925	0	57960	
3926	0	35544	
3927	0	48740	
3928	0	34803	
3929	0	57952	
3930	0	36082	
3931	0	46185	
3932	0	35424	
3933	0	57944	
3934	0	35414	
3935	0	45297	
3936	0	35207	
3937	0	57792	
3938	0	35256	
3939	0	47659	
3940	0	35518	
3941	0	57858	
3942	0	35496	
3943	0	46976	
3944	0	36152	
3945	0	57520	
3946	0	34508	
3947	0	47159	
3948	0	36680	
3949	0	58148	
3950	0	34160	
3951	0	48297	
3952	0	35216	
3953	0	58058	
3954	0	35869	
3955	0	47529	
3956	0	35444	
3957	0	58016	
3958	0	35964	
3959	0	47321	
3960	0	37394	
3961	0	57664	
3962	0	32930	
3963	0	52743	
3964	0	36452	
3965	0	55424	
3966	0	34896	
3967	0	50344	
3968	0	37072	
3969	0	57408	
3970	0	35084	
3971	0	51624	
3972	0	28422	
3973	0	56464	
3974	0	34188	
3975	0	48805	
3976	0	36100	
3977	0	56552	
3978	0	32292	
3979	0	56320	
3980	0	34704	
3981	0	58616	
3982	0	37566	
3983	0	48712	
3984	0	36294	
3985	0	58416	
3986	0	33510	
3987	0	62232	
3988	0	38630	
3989	0	58420	
3990	0	34775	
3991	0	62432	
3992	0	33740	
3993	0	59336	
3994	0	34330	
3995	0	62768	
3996	0	36004	
3997	0	58768	
3998	0	34857	
3999	0	61383	
4000	0	37092	
4001	0	56312	
4002	0	34489	
4003	0	56936	
4004	0	37129	
4005	0	56928	
4006	0	35553	
4007	0	55888	
4008	0	36084	
4009	0	56972	
4010	0	34912	
4011	0	62288	
4012	0	36359	
4013	0	57304	
4014	0	34606	
4015	0	61186	
4016	0	37230	
4017	0	55744	
4018	0	35015	
4019	0	55680	
4020	0	36536	
4021	0	55104	
4022	0	34672	
4023	0	53760	
4024	0	35733	
4025	0	55728	
4026	0	36618	
4027	0	54044	
4028	0	35368	
4029	0	55576	
4030	0	35506	
4031	0	51200	
4032	0	36321	
4033	0	55916	
4034	0	35360	
4035	0	52408	
4036	0	35149	
4037	0	55440	
4038	0	35439	
4039	0	51528	
4040	0	37084	
4041	0	55080	
4042	0	34944	
4043	0	56672	
4044	0	34886	
4045	0	55560	
4046	0	34267	
4047	0	50612	
4048	0	37166	
4049	0	54704	
4050	0	35290	
4051	0	49392	
4052	0	35823	
4053	0	53912	
4054	0	35040	
4055	0	50816	
4056	0	36164	
4057	0	54200	
4058	0	35570	
4059	0	47170	
4060	0	37193	
4061	0	52480	
4062	0	35753	
4063	0	49344	
4064	0	35962	
4065	0	53796	
4066	0	34710	
4067	0	53042	
4068	0	35029	
4069	0	52816	
4070	0	35264	
4071	0	50752	
4072	0	35567	
4073	0	52492	
4074	0	35893	
4075	0	49808	
4076	0	35310	
4077	0	51865	
4078	0	35856	
4079	0	48056	
4080	0	35490	
4081	0	52500	
4082	0	35741	
4083	0	48936	
4084	0	36104	
4085	0	52520	
4086	0	36288	
4087	0	50694	
4088	0	35926	
4089	0	52202	
4090	0	35636	
4091	0	48520	
4092	0	35528	
4093	0	52000	
4094	0	36039	
4095	0	49300	
4096	0	35762	
4097	0	52712	
4098	0	34534	
4099	0	48440	
4100	0	35888	
4101	0	51172	
4102	0	35594	
4103	0	51168	
4104	0	35798	
4105	0	51564	
4106	0	35537	
4107	0	49158	
4108	0	36348	
4109	0	51152	
4110	0	35689	
4111	0	52024	
4112	0	35552	
4113	0	51104	
4114	0	35486	
4115	0	50200	
4116	0	35632	
4117	0	49544	
4118	0	35206	
4119	0	51584	
4120	0	35540	
4121	0	50752	
4122	0	35015	
4123	0	49756	
4124	0	35892	
4125	0	48340	
4126	0	36176	
4127	0	50848	
4128	0	35740	
4129	0	48176	
4130	0	35820	
4131	0	51296	
4132	0	35364	
4133	0	47760	
4134	0	35992	
4135	0	49188	
4136	0	35770	
4137	0	47704	
4138	0	35876	
4139	0	51698	
4140	0	35372	
4141	0	46328	
4142	0	35973	
4143	0	53952	
4144	0	35465	
4145	0	46492	
4146	0	36080	
4147	0	52231	
4148	0	36304	
4149	0	45656	
4150	0	35788	
4151	0	51632	
4152	0	36152	
4153	0	44904	
4154	0	35692	
4155	0	55656	
4156	0	35723	
4157	0	45620	
4158	0	36157	
4159	0	55815	
4160	0	35812	
4161	0	43897	
4162	0	35880	
4163	0	53312	
4164	0	36080	
4165	0	42378	
4166	0	36358	
4167	0	50944	
4168	0	36089	
4169	0	41924	
4170	0	36508	
4171	0	50072	
4172	0	35405	
4173	0	42120	
4174	0	36050	
4175	0	51305	
4176	0	35748	
4177	0	39832	
4178	0	36718	
4179	0	52752	
4180	0	36168	
4181	0	41696	
4182	0	36208	
4183	0	53536	
4184	0	35773	
4185	0	40576	
4186	0	36276	
4187	0	52300	
4188	0	34590	
4189	0	38720	
4190	0	36220	
4191	0	49258	
4192	0	35809	
4193	0	39776	
4194	0	36480	
4195	0	55216	
4196	0	35744	
4197	0	40048	
4198	0	36167	
4199	0	55944	
4200	0	35648	
4201	0	39353	
4202	0	36769	
4203	0	49961	
4204	0	36359	
4205	0	40856	
4206	0	35032	
4207	0	51496	
4208	0	36596	
4209	0	39528	
4210	0	36242	
4211	0	57479	
4212	0	36024	
4213	0	39140	
4214	0	36256	
4215	0	50944	
4216	0	36353	
4217	0	38680	
4218	0	35908	
4219	0	56178	
4220	0	36266	
4221	0	37592	
4222	0	34548	
4223	0	54680	
4224	0	36062	
4225	0	38408	
4226	0	35756	
4227	0	56256	
4228	0	36085	
4229	0	36832	
4230	0	36028	
4231	0	51388	
4232	0	36232	
4233	0	38076	
4234	0	36550	
4235	0	55763	
4236	0	35824	
4237	0	36512	
4238	0	36073	
4239	0	55172	
4240	0	36212	
4241	0	35912	
4242	0	36580	
4243	0	58808	
4244	0	35978	
4245	0	36614	
4246	0	36466	
4247	0	53280	
4248	0	36288	
4249	0	36368	
4250	0	35436	
4251	0	56896	
4252	0	35748	
4253	0	36102	
4254	0	36324	
4255	0	58422	
4256	0	36032	
4257	0	35500	
4258	0	37696	
4259	0	52828	
4260	0	36333	
4261	0	35408	
4262	0	37028	
4263	0	54502	
4264	0	36444	
4265	0	35274	
4266	0	36245	
4267	0	57148	
4268	0	35037	
4269	0	35548	
4270	0	36676	
4271	0	56920	
4272	0	35847	
4273	0	37402	
4274	0	36441	
4275	0	57264	
4276	0	36374	
4277	0	35324	
4278	0	36025	
4279	0	58356	
4280	0	36039	
4281	0	34068	
4282	0	35610	
4283	0	58588	
4284	0	35897	
4285	0	35196	
4286	0	36822	
4287	0	58944	
4288	0	35844	
4289	0	34080	
4290	0	36456	
4291	0	55021	
4292	0	36192	
4293	0	35364	
4294	0	36390	
4295	0	56992	
4296	0	35719	
4297	0	34656	
4298	0	36871	
4299	0	58504	
4300	0	35843	
4301	0	34331	
4302	0	36520	
4303	0	57684	
4304	0	36424	
4305	0	33764	
4306	0	36655	
4307	0	58170	
4308	0	35864	
4309	0	33426	
4310	0	36440	
4311	0	52888	
4312	0	36082	
4313	0	34590	
4314	0	36496	
4315	0	55570	
4316	0	36114	
4317	0	35512	
4318	0	36945	
4319	0	57760	
4320	0	36108	
4321	0	33624	
4322	0	36832	
4323	0	53178	
4324	0	36050	
4325	0	34644	
4326	0	36904	
4327	0	57728	
4328	0	36103	
4329	0	33672	
4330	0	36300	
4331	0	56760	
4332	0	36197	
4333	0	33788	
4334	0	36836	
4335	0	57244	
4336	0	34769	
4337	0	34148	
4338	0	36838	
4339	0	57544	
4340	0	36048	
4341	0	33108	
4342	0	36603	
4343	0	53912	
4344	0	36487	
4345	0	33260	
4346	0	36955	
4347	0	57048	
4348	0	36568	
4349	0	33024	
4350	0	35208	
4351	0	57560	
4352	0	36258	
4353	0	32148	
4354	0	36485	
4355	0	55956	
4356	0	36388	
4357	0	32100	
4358	0	37345	
4359	0	56464	
4360	0	36477	
4361	0	31616	
4362	0	36848	
4363	0	56136	
4364	0	36590	
4365	0	30532	
4366	0	36540	
4367	0	56794	
4368	0	36312	
4369	0	31780	
4370	0	36720	
4371	0	56480	
4372	0	36301	
4373	0	32360	
4374	0	36560	
4375	0	56520	
4376	0	36464	
4377	0	32566	
4378	0	36935	
4379	0	52592	
4380	0	36816	
4381	0	32337	
4382	0	38148	
4383	0	55284	
4384	0	36932	
4385	0	32292	
4386	0	36743	
4387	0	55976	
4388	0	36308	
4389	0	32776	
4390	0	36584	
4391	0	56280	
4392	0	36740	
4393	0	31484	
4394	0	37308	
4395	0	55912	
4396	0	36944	
4397	0	33164	
4398	0	35966	
4399	0	55704	
4400	0	36594	
4401	0	30544	
4402	0	36336	
4403	0	55584	
4404	0	36140	
4405	0	31240	
4406	0	36683	
4407	0	55564	
4408	0	36073	
4409	0	30504	
4410	0	37207	
4411	0	53856	
4412	0	36728	
4413	0	30564	
4414	0	36558	
4415	0	55332	
4416	0	36373	
4417	0	30112	
4418	0	36231	
4419	0	54504	
4420	0	36575	
4421	0	29520	
4422	0	37211	
4423	0	54448	
4424	0	36506	
4425	0	28040	
4426	0	37691	
4427	0	52042	
4428	0	37104	
4429	0	29913	
4430	0	36517	
4431	0	53416	
4432	0	36270	
4433	0	27074	
4434	0	37145	
4435	0	54296	
4436	0	36492	
4437	0	28112	
4438	0	36672	
4439	0	53844	
4440	0	36962	
4441	0	27513	
4442	0	36935	
4443	0	53656	
4444	0	36236	
4445	0	26840	
4446	0	36944	
4447	0	53080	
4448	0	36634	
4449	0	26880	
4450	0	37252	
4451	0	53184	
4452	0	36808	
4453	0	26868	
4454	0	37240	
4455	0	53232	
4456	0	36359	
4457	0	27160	
4458	0	37314	
4459	0	53689	
4460	0	36692	
4461	0	26216	
4462	0	36934	
4463	0	52024	
4464	0	36478	
4465	0	26793	
4466	0	36932	
4467	0	53224	
4468	0	36620	
4469	0	27361	
4470	0	36664	
4471	0	51776	
4472	0	36373	
4473	0	25370	
4474	0	36625	
4475	0	52760	
4476	0	36345	
4477	0	25256	
4478	0	36490	
4479	0	51202	
4480	0	36672	
4481	0	24844	
4482	0	36948	
4483	0	50916	
4484	0	36740	
4485	0	25736	
4486	0	37569	
4487	0	50912	
4488	0	36733	
4489	0	25440	
4490	0	36732	
4491	0	49544	
4492	0	36656	
4493	0	25032	
4494	0	36359	
4495	0	49752	
4496	0	37208	
4497	0	24008	
4498	0	37138	
4499	0	49162	
4500	0	36652	
4501	0	24852	
4502	0	37007	
4503	0	49272	
4504	0	36952	
4505	0	24464	
4506	0	37799	
4507	0	49316	
4508	0	36918	
4509	0	24680	
4510	0	36752	
4511	0	48008	
4512	0	37324	
4513	0	24292	
4514	0	38023	
4515	0	47784	
4516	0	37496	
4517	0	24429	
4518	0	37136	
4519	0	48016	
4520	0	36520	
4521	0	24964	
4522	0	37136	
4523	0	48936	
4524	0	36346	
4525	0	23020	
4526	0	37186	
4527	0	47616	
4528	0	35499	
4529	0	22658	
4530	0	37220	
4531	0	48032	
4532	0	37206	
4533	0	23848	
4534	0	37477	
4535	0	47184	
4536	0	37152	
4537	0	23928	
4538	0	36901	
4539	0	47160	
4540	0	36516	
4541	0	24030	
4542	0	37336	
4543	0	47744	
4544	0	36484	
4545	0	24154	
4546	0	37554	
4547	0	47344	
4548	0	37312	
4549	0	23710	
4550	0	37052	
4551	0	44820	
4552	0	36622	
4553	0	23804	
4554	0	37123	
4555	0	46036	
4556	0	36448	
4557	0	24068	
4558	0	38512	
4559	0	46384	
4560	0	36949	
4561	0	24153	
4562	0	37097	
4563	0	44784	
4564	0	36180	
4565	0	23914	
4566	0	38578	
4567	0	45348	
4568	0	36642	
4569	0	21809	
4570	0	37908	
4571	0	42888	
4572	0	36908	
4573	0	23756	
4574	0	37580	
4575	0	44464	
4576	0	36992	
4577	0	24216	
4578	0	37608	
4579	0	42960	
4580	0	36672	
4581	0	21960	
4582	0	38365	
4583	0	42208	
4584	0	36570	
4585	0	22100	
4586	0	37458	
4587	0	42384	
4588	0	36832	
4589	0	22202	
4590	0	36950	
4591	0	43656	
4592	0	36860	
4593	0	23038	
4594	0	37554	
4595	0	43458	
4596	0	36448	
4597	0	23524	
4598	0	37886	
4599	0	41856	
4600	0	36289	
4601	0	22690	
4602	0	37376	
4603	0	43602	
4604	0	35797	
4605	0	22536	
4606	0	37214	
4607	0	40388	
4608	0	37568	
4609	0	21933	
4610	0	37104	
4611	0	40756	
4612	0	36948	
4613	0	22732	
4614	0	37881	
4615	0	41152	
4616	0	37214	
4617	0	21468	
4618	0	37020	
4619	0	38120	
4620	0	36559	
4621	0	21868	
4622	0	36975	
4623	0	40472	
4624	0	37121	
4625	0	21772	
4626	0	37248	
4627	0	34720	
4628	0	37426	
4629	0	21820	
4630	0	37153	
4631	0	35020	
4632	0	37448	
4633	0	20868	
4634	0	37428	
4635	0	3811	
4636	0	34454	
4637	0	17774	
4638	0	37485	
4639	0	30536	
4640	0	38308	
4641	0	20523	
4642	0	37510	
4643	0	36396	
4644	0	36485	
4645	0	19521	
4646	0	37484	
4647	0	36568	
4648	0	36742	
4649	0	19402	
4650	0	37520	
4651	0	33512	
4652	0	37317	
4653	0	20712	
4654	0	38088	
4655	0	35384	
4656	0	36870	
4657	0	18282	
4658	0	37270	
4659	0	32092	
4660	0	37532	
4661	0	19076	
4662	0	37757	
4663	0	35616	
4664	0	37460	
4665	0	17668	
4666	0	37146	
4667	0	33444	
4668	0	37957	
4669	0	19920	
4670	0	37727	
4671	0	16030	
4672	0	38512	
4673	0	19360	
4674	0	37255	
4675	0	28041	
4676	0	35350	
4677	0	22136	
4678	0	36066	
4679	0	14552	
4680	0	40438	
4681	0	23784	
4682	0	28280	
4683	0	29641	
4684	0	37524	
4685	0	22026	
4686	0	33196	
4687	0	14314	
4688	0	35905	
4689	0	14450	
4690	0	37677	
4691	0	42040	
4692	0	31768	
4693	0	8972	
4694	0	39492	
4695	0	41626	
4696	0	29548	
4697	0	11108	
4698	0	37452	
4699	0	26344	
4700	0	37460	
4701	0	19108	
4702	0	39103	
4703	0	25458	
4704	0	38156	
4705	0	17932	
4706	0	37088	
4707	0	17375	
4708	0	39942	
4709	0	15676	
4710	0	37836	
4711	0	16792	
4712	0	39008	
4713	0	16195	
4714	0	39162	
4715	0	15092	
4716	0	38680	
4717	0	15832	
4718	0	37163	
4719	0	15394	
4720	0	36652	
4721	0	17835	
4722	0	37688	
4723	0	16571	
4724	0	38967	
4725	0	16947	
4726	0	37612	
4727	0	17057	
4728	0	40392	
4729	0	16733	
4730	0	37348	
4731	0	16641	
4732	0	39843	
4733	0	17396	
4734	0	37574	
4735	0	15813	
4736	0	38827	
4737	0	18000	
4738	0	37940	
4739	0	16128	
4740	0	38968	
4741	0	16888	
4742	0	36348	
4743	0	16560	
4744	0	38172	
4745	0	16704	
4746	0	36792	
4747	0	15482	
4748	0	37952	
4749	0	14690	
4750	0	37756	
4751	0	15848	
4752	0	37225	
4753	0	14712	
4754	0	37605	
4755	0	16772	
4756	0	37827	
4757	0	13724	
4758	0	35790	
4759	0	19656	
4760	0	37426	
4761	0	13816	
4762	0	37913	
4763	0	20234	
4764	0	37383	
4765	0	13712	
4766	0	38772	
4767	0	15872	
4768	0	37912	
4769	0	13792	
4770	0	38438	
4771	0	19524	
4772	0	36688	
4773	0	13253	
4774	0	38164	
4775	0	12632	
4776	0	37216	
4777	0	12752	
4778	0	37984	
4779	0	38717	
4780	0	29884	
4781	0	15076	
4782	0	35712	
4783	0	9052	
4784	0	38384	
4785	0	13953	
4786	0	38919	
4787	0	17076	
4788	0	37462	
4789	0	13306	
4790	0	37792	
4791	0	17808	
4792	0	36816	
4793	0	13244	
4794	0	38299	
4795	0	17484	
4796	0	37424	
4797	0	13194	
4798	0	37476	
4799	0	12321	
4800	0	37681	
4801	0	13486	
4802	0	38236	
4803	0	17036	
4804	0	37352	
4805	0	13079	
4806	0	38082	
4807	0	13010	
4808	0	36796	
4809	0	11645	
4810	0	38312	
4811	0	16612	
4812	0	37204	
4813	0	12521	
4814	0	38182	
4815	0	14904	
4816	0	37586	
4817	0	12314	
4818	0	38908	
4819	0	13600	
4820	0	37472	
4821	0	13001	
4822	0	38556	
4823	0	13336	
4824	0	36786	
4825	0	12640	
4826	0	38064	
4827	0	13624	
4828	0	38388	
4829	0	12176	
4830	0	38344	
4831	0	15813	
4832	0	36996	
4833	0	12569	
4834	0	38332	
4835	0	14856	
4836	0	37156	
4837	0	12808	
4838	0	38840	
4839	0	12482	
4840	0	37008	
4841	0	11607	
4842	0	37540	
4843	0	11299	
4844	0	37658	
4845	0	12957	
4846	0	38426	
4847	0	11612	
4848	0	37366	
4849	0	12360	
4850	0	38723	
4851	0	12930	
4852	0	38030	
4853	0	12052	
4854	0	38636	
4855	0	11064	
4856	0	36708	
4857	0	12294	
4858	0	38640	
4859	0	11500	
4860	0	37594	
4861	0	12296	
4862	0	38012	
4863	0	11464	
4864	0	37722	
4865	0	12224	
4866	0	38367	
4867	0	10211	
4868	0	37200	
4869	0	12392	
4870	0	38596	
4871	0	9832	
4872	0	37960	
4873	0	11664	
4874	0	39008	
4875	0	10598	
4876	0	37404	
4877	0	11968	
4878	0	38752	
4879	0	10510	
4880	0	37364	
4881	0	11505	
4882	0	38728	
4883	0	9840	
4884	0	37532	
4885	0	11438	
4886	0	38316	
4887	0	9931	
4888	0	38400	
4889	0	11620	
4890	0	38780	
4891	0	10258	
4892	0	37624	
4893	0	11972	
4894	0	38181	
4895	0	9654	
4896	0	37134	
4897	0	11587	
4898	0	38040	
4899	0	9406	
4900	0	36829	
4901	0	11748	
4902	0	38292	
4903	0	9373	
4904	0	37248	
4905	0	11812	
4906	0	37392	
4907	0	9747	
4908	0	36777	
4909	0	10418	
4910	0	38057	
4911	0	9552	
4912	0	37336	
4913	0	12122	
4914	0	38137	
4915	0	9252	
4916	0	37660	
4917	0	11608	
4918	0	37984	
4919	0	9768	
4920	0	37964	
4921	0	11934	
4922	0	37996	
4923	0	9645	
4924	0	37248	
4925	0	11162	
4926	0	38402	
4927	0	9528	
4928	0	37602	
4929	0	11676	
4930	0	38816	
4931	0	9802	
4932	0	37537	
4933	0	11572	
4934	0	38416	
4935	0	9464	
4936	0	37725	
4937	0	11776	
4938	0	38885	
4939	0	9801	
4940	0	37549	
4941	0	11172	
4942	0	38840	
4943	0	8989	
4944	0	37394	
4945	0	11124	
4946	0	38598	
4947	0	9828	
4948	0	37256	
4949	0	11299	
4950	0	39008	
4951	0	8378	
4952	0	36565	
4953	0	10678	
4954	0	38810	
4955	0	9459	
4956	0	37760	
4957	0	11433	
4958	0	38256	
4959	0	9120	
4960	0	37534	
4961	0	11037	
4962	0	38372	
4963	0	9120	
4964	0	37816	
4965	0	11292	
4966	0	38460	
4967	0	9687	
4968	0	37089	
4969	0	10973	
4970	0	39111	
4971	0	9085	
4972	0	37803	
4973	0	11225	
4974	0	38580	
4975	0	9415	
4976	0	37228	
4977	0	11449	
4978	0	38303	
4979	0	9721	
4980	0	37458	
4981	0	10552	
4982	0	37276	
4983	0	9492	
4984	0	38012	
4985	0	10996	
4986	0	39040	
4987	0	9350	
4988	0	37656	
4989	0	11032	
4990	0	37648	
4991	0	9552	
4992	0	37537	
4993	0	9809	
4994	0	37511	
4995	0	8172	
4996	0	37712	
4997	0	11287	
4998	0	38808	
4999	0	9140	
5000	0	38032	
5001	0	10918	
5002	0	37852	
5003	0	9442	
5004	0	37520	
5005	0	11090	
5006	0	38492	
5007	0	8928	
5008	0	37306	
5009	0	9084	
5010	0	38038	
5011	0	8871	
5012	0	37919	
5013	0	10766	
5014	0	38596	
5015	0	8722	
5016	0	37636	
5017	0	11219	
5018	0	38457	
5019	0	8755	
5020	0	37174	
5021	0	10959	
5022	0	38797	
5023	0	8800	
5024	0	37324	
5025	0	10797	
5026	0	38860	
5027	0	8355	
5028	0	37862	
5029	0	10724	
5030	0	38396	
5031	0	8690	
5032	0	37212	
5033	0	10650	
5034	0	38840	
5035	0	8134	
5036	0	37808	
5037	0	10916	
5038	0	38748	
5039	0	9013	
5040	0	38144	
5041	0	10270	
5042	0	38298	
5043	0	8185	
5044	0	37912	
5045	0	10840	
5046	0	38557	
5047	0	9275	
5048	0	37738	
5049	0	11132	
5050	0	39712	
5051	0	9011	
5052	0	38168	
5053	0	10425	
5054	0	38473	
5055	0	8622	
5056	0	37604	
5057	0	10694	
5058	0	37856	
5059	0	9094	
5060	0	37660	
5061	0	10536	
5062	0	39133	
5063	0	8632	
5064	0	38000	
5065	0	10272	
5066	0	39040	
5067	0	8949	
5068	0	37684	
5069	0	11055	
5070	0	38407	
5071	0	8776	
5072	0	37724	
5073	0	10070	
5074	0	38264	
5075	0	45876	
5076	0	28941	
5077	0	14200	
5078	0	34187	
5079	0	8630	
5080	0	39088	
5081	0	10578	
5082	0	39737	
5083	0	9064	
5084	0	38320	
5085	0	10628	
5086	0	39762	
5087	0	8581	
5088	0	37472	
5089	0	10916	
5090	0	38684	
5091	0	8166	
5092	0	36853	
5093	0	11220	
5094	0	38373	
5095	0	7029	
5096	0	37976	
5097	0	10616	
5098	0	38876	
5099	0	8356	
5100	0	37268	
5101	0	10720	
5102	0	38808	
5103	0	8201	
5104	0	37645	
5105	0	9700	
5106	0	38402	
5107	0	8019	
5108	0	36972	
5109	0	8592	
5110	0	37752	
5111	0	7230	
5112	0	38180	
5113	0	10278	
5114	0	38756	
5115	0	8037	
5116	0	37724	
5117	0	9816	
5118	0	38160	
5119	0	8410	
5120	0	37922	
5121	0	10177	
5122	0	39325	
5123	0	8078	
5124	0	38196	
5125	0	9630	
5126	0	38900	
5127	0	8328	
5128	0	37700	
5129	0	9528	
5130	0	38651	
5131	0	7378	
5132	0	37575	
5133	0	9606	
5134	0	38969	
5135	0	7248	
5136	0	39091	
5137	0	6998	
5138	0	39874	
5139	0	7366	
5140	0	38128	
5141	0	9920	
5142	0	38608	
5143	0	6941	
5144	0	36956	
5145	0	9690	
5146	0	39312	
5147	0	7647	
5148	0	37878	
5149	0	9300	
5150	0	39016	
5151	0	6020	
5152	0	38130	
5153	0	9112	
5154	0	38508	
5155	0	7672	
5156	0	38025	
5157	0	9077	
5158	0	38674	
5159	0	6800	
5160	0	37853	
5161	0	9456	
5162	0	39084	
5163	0	7824	
5164	0	37410	
5165	0	9201	
5166	0	38744	
5167	0	6412	
5168	0	38023	
5169	0	9351	
5170	0	38759	
5171	0	7295	
5172	0	38717	
5173	0	8148	
5174	0	39263	
5175	0	6983	
5176	0	37772	
5177	0	8564	
5178	0	38164	
5179	0	5287	
5180	0	38427	
5181	0	7666	
5182	0	39404	
5183	0	6739	
5184	0	37210	
5185	0	8582	
5186	0	39092	
5187	0	6330	
5188	0	37792	
5189	0	9635	
5190	0	39239	
5191	0	6164	
5192	0	36944	
5193	0	9162	
5194	0	38812	
5195	0	7812	
5196	0	38080	
5197	0	8328	
5198	0	38552	
5199	0	5401	
5200	0	37636	
5201	0	7884	
5202	0	38236	
5203	0	6528	
5204	0	38888	
5205	0	8420	
5206	0	39585	
5207	0	5282	
5208	0	38070	
5209	0	5970	
5210	0	38874	
5211	0	5533	
5212	0	38202	
5213	0	7675	
5214	0	38480	
5215	0	5627	
5216	0	40416	
5217	0	9368	
5218	0	37856	
5219	0	4910	
5220	0	39496	
5221	0	9006	
5222	0	36103	
5223	0	5917	
5224	0	37650	
5225	0	11257	
5226	0	35380	
5227	0	5603	
5228	0	34217	
5229	0	10412	
5230	0	39656	
5231	0	4841	
5232	0	38770	
5233	0	6829	
5234	0	39066	
5235	0	44039	
5236	0	28664	
5237	0	8100	
5238	0	42127	
5239	0	5051	
5240	0	39000	
5241	0	9475	
5242	0	39696	
5243	0	11090	
5244	0	42850	
5245	0	11776	
5246	0	41592	
5247	0	5706	
5248	0	38076	
5249	0	15276	
5250	0	42816	
5251	0	11508	
5252	0	40986	
5253	0	13884	
5254	0	36608	
5255	0	13471	
5256	0	38407	
5257	0	15817	
5258	0	39576	
5259	0	14551	
5260	0	39089	
5261	0	13804	
5262	0	40078	
5263	0	12324	
5264	0	44402	
5265	0	13319	
5266	0	33152	
5267	0	15189	
5268	0	44120	
5269	0	11791	
5270	0	40312	
5271	0	13195	
5272	0	43183	
5273	0	14044	
5274	0	39971	
5275	0	13738	
5276	0	41216	
5277	0	13378	
5278	0	40548	
5279	0	12747	
5280	0	42018	
5281	0	12998	
5282	0	40024	
5283	0	12781	
5284	0	40720	
5285	0	12417	
5286	0	37974	
5287	0	12946	
5288	0	39448	
5289	0	11388	
5290	0	39622	
5291	0	11015	
5292	0	40768	
5293	0	10757	
5294	0	39250	
5295	0	9853	
5296	0	40314	
5297	0	9228	
5298	0	39431	
5299	0	8385	
5300	0	38855	
5301	0	7236	
5302	0	39714	
5303	0	8192	
5304	0	39239	
5305	0	8270	
5306	0	39300	
5307	0	6988	
5308	0	38220	
5309	0	7021	
5310	0	38761	
5311	0	5321	
5312	0	38432	
5313	0	7200	
5314	0	39150	
5315	0	5925	
5316	0	38918	
5317	0	5696	
5318	0	39940	
5319	0	5188	
5320	0	37714	
5321	0	5762	
5322	0	39878	
5323	0	17352	
5324	0	36201	
5325	0	6217	
5326	0	40869	
5327	0	8669	
5328	0	36980	
5329	0	6435	
5330	0	40212	
5331	0	4992	
5332	0	38280	
5333	0	6058	
5334	0	40064	
5335	0	5587	
5336	0	38352	
5337	0	5865	
5338	0	39805	
5339	0	5604	
5340	0	38438	
5341	0	6037	
5342	0	39482	
5343	0	5373	
5344	0	38349	
5345	0	6184	
5346	0	40928	
5347	0	5175	
5348	0	37802	
5349	0	6845	
5350	0	40204	
5351	0	5498	
5352	0	37820	
5353	0	5737	
5354	0	40334	
5355	0	4538	
5356	0	36867	
5357	0	6290	
5358	0	39820	
5359	0	4498	
5360	0	37968	
5361	0	6752	
5362	0	39544	
5363	0	4861	
5364	0	37920	
5365	0	7043	
5366	0	40238	
5367	0	4465	
5368	0	39174	
5369	0	6884	
5370	0	39238	
5371	0	4808	
5372	0	38308	
5373	0	6733	
5374	0	39592	
5375	0	4753	
5376	0	38278	
5377	0	6566	
5378	0	39673	
5379	0	4812	
5380	0	38072	
5381	0	7198	
5382	0	40234	
5383	0	4396	
5384	0	38584	
5385	0	6297	
5386	0	38680	
5387	0	4620	
5388	0	38876	
5389	0	6642	
5390	0	40285	
5391	0	4264	
5392	0	38878	
5393	0	6672	
5394	0	39072	
5395	0	4269	
5396	0	39782	
5397	0	6185	
5398	0	38676	
5399	0	4477	
5400	0	39212	
5401	0	5394	
5402	0	39545	
5403	0	3849	
5404	0	39060	
5405	0	5480	
5406	0	39380	
5407	0	8272	
5408	0	40093	
5409	0	4862	
5410	0	40745	
5411	0	44240	
5412	0	24157	
5413	0	12820	
5414	0	37074	
5415	0	38836	
5416	0	35480	
5417	0	8440	
5418	0	44644	
5419	0	34020	
5420	0	40648	
5421	0	9203	
5422	0	37178	
5423	0	11492	
5424	0	42055	
5425	0	14713	
5426	0	41474	
5427	0	10032	
5428	0	43044	
5429	0	15170	
5430	0	37612	
5431	0	16976	
5432	0	47604	
5433	0	13713	
5434	0	39204	
5435	0	13778	
5436	0	44573	
5437	0	18024	
5438	0	31292	
5439	0	17406	
5440	0	44664	
5441	0	13050	
5442	0	40740	
5443	0	13677	
5444	0	43544	
5445	0	16277	
5446	0	42653	
5447	0	12852	
5448	0	41600	
5449	0	17313	
5450	0	38617	
5451	0	13650	
5452	0	51081	
5453	0	18377	
5454	0	41434	
5455	0	17038	
5456	0	47279	
5457	0	19056	
5458	0	39316	
5459	0	17693	
5460	0	44528	
5461	0	18273	
5462	0	45592	
5463	0	16661	
5464	0	48120	
5465	0	16079	
5466	0	38116	
5467	0	16437	
5468	0	44936	
5469	0	16107	
5470	0	38500	
5471	0	17472	
5472	0	47126	
5473	0	17620	
5474	0	39647	
5475	0	15937	
5476	0	46060	
5477	0	18476	
5478	0	40300	
5479	0	15898	
5480	0	47264	
5481	0	16004	
5482	0	39480	
5483	0	16656	
5484	0	46640	
5485	0	15749	
5486	0	39922	
5487	0	16835	
5488	0	46292	
5489	0	13532	
5490	0	38472	
5491	0	15577	
5492	0	46328	
5493	0	11297	
5494	0	38696	
5495	0	13449	
5496	0	41616	
5497	0	10889	
5498	0	39053	
5499	0	12060	
5500	0	42152	
5501	0	7922	
5502	0	39032	
5503	0	9590	
5504	0	42074	
5505	0	8390	
5506	0	40086	
5507	0	7692	
5508	0	40582	
5509	0	8614	
5510	0	40576	
5511	0	7126	
5512	0	40808	
5513	0	7760	
5514	0	41196	
5515	0	7203	
5516	0	40548	
5517	0	7776	
5518	0	41624	
5519	0	6100	
5520	0	40104	
5521	0	7410	
5522	0	40854	
5523	0	5543	
5524	0	40781	
5525	0	6525	
5526	0	41040	
5527	0	5598	
5528	0	39264	
5529	0	6356	
5530	0	41700	
5531	0	5561	
5532	0	40047	
5533	0	5938	
5534	0	39898	
5535	0	5215	
5536	0	40800	
5537	0	5724	
5538	0	40739	
5539	0	5546	
5540	0	39484	
5541	0	4234	
5542	0	41095	
5543	0	5232	
5544	0	40100	
5545	0	4425	
5546	0	40647	
5547	0	4863	
5548	0	39100	
5549	0	4487	
5550	0	42296	
5551	0	4216	
5552	0	40684	
5553	0	4119	
5554	0	41064	
5555	0	4290	
5556	0	39824	
5557	0	4331	
5558	0	40804	
5559	0	4337	
5560	0	40450	
5561	0	4047	
5562	0	40816	
5563	0	4676	
5564	0	38738	
5565	0	4614	
5566	0	41100	
5567	0	4197	
5568	0	40348	
5569	0	4057	
5570	0	41042	
5571	0	4508	
5572	0	39852	
5573	0	4039	
5574	0	40285	
5575	0	4419	
5576	0	40232	
5577	0	3906	
5578	0	41836	
5579	0	4791	
5580	0	38568	
5581	0	4481	
5582	0	43544	
5583	0	4021	
5584	0	41584	
5585	0	4468	
5586	0	42413	
5587	0	4293	
5588	0	40724	
5589	0	4570	
5590	0	41880	
5591	0	4014	
5592	0	39560	
5593	0	4598	
5594	0	41956	
5595	0	3640	
5596	0	39712	
5597	0	7492	
5598	0	43208	
5599	0	5281	
5600	0	39858	
5601	0	10093	
5602	0	44536	
5603	0	7125	
5604	0	44944	
5605	0	4830	
5606	0	38836	
5607	0	8410	
5608	0	37524	
5609	0	12349	
5610	0	40924	
5611	0	8709	
5612	0	43558	
5613	0	14161	
5614	0	40628	
5615	0	10678	
5616	0	42876	
5617	0	12752	
5618	0	41420	
5619	0	11335	
5620	0	48455	
5621	0	14431	
5622	0	36233	
5623	0	13817	
5624	0	46279	
5625	0	14176	
5626	0	39156	
5627	0	15856	
5628	0	45908	
5629	0	12958	
5630	0	39516	
5631	0	14716	
5632	0	46598	
5633	0	11552	
5634	0	39792	
5635	0	13573	
5636	0	46136	
5637	0	13284	
5638	0	38114	
5639	0	12088	
5640	0	44752	
5641	0	13453	
5642	0	42476	
5643	0	11599	
5644	0	46954	
5645	0	14048	
5646	0	41912	
5647	0	13998	
5648	0	47680	
5649	0	13887	
5650	0	42578	
5651	0	13319	
5652	0	45376	
5653	0	13014	
5654	0	40924	
5655	0	12976	
5656	0	46359	
5657	0	12096	
5658	0	38832	
5659	0	12791	
5660	0	44160	
5661	0	12236	
5662	0	41683	
5663	0	11316	
5664	0	44476	
5665	0	10769	
5666	0	40770	
5667	0	11109	
5668	0	44982	
5669	0	9589	
5670	0	41244	
5671	0	10944	
5672	0	43748	
5673	0	10918	
5674	0	41588	
5675	0	10266	
5676	0	42768	
5677	0	8038	
5678	0	40276	
5679	0	9964	
5680	0	43954	
5681	0	7140	
5682	0	40325	
5683	0	8896	
5684	0	42410	
5685	0	5943	
5686	0	40668	
5687	0	6211	
5688	0	41542	
5689	0	5832	
5690	0	42503	
5691	0	4854	
5692	0	40824	
5693	0	5372	
5694	0	43412	
5695	0	5556	
5696	0	40588	
5697	0	5755	
5698	0	42454	
5699	0	4766	
5700	0	40860	
5701	0	5126	
5702	0	41960	
5703	0	4996	
5704	0	40058	
5705	0	3725	
5706	0	42020	
5707	0	5030	
5708	0	41158	
5709	0	3405	
5710	0	42196	
5711	0	4214	
5712	0	40238	
5713	0	3932	
5714	0	41748	
5715	0	4889	
5716	0	40290	
5717	0	3749	
5718	0	42173	
5719	0	4936	
5720	0	41696	
5721	0	4267	
5722	0	43015	
5723	0	4323	
5724	0	40594	
5725	0	4017	
5726	0	43229	
5727	0	5176	
5728	0	40520	
5729	0	3405	
5730	0	42410	
5731	0	5321	
5732	0	40405	
5733	0	3776	
5734	0	41896	
5735	0	4824	
5736	0	40259	
5737	0	3613	
5738	0	41224	
5739	0	5444	
5740	0	41132	
5741	0	3674	
5742	0	42725	
5743	0	4876	
5744	0	41479	
5745	0	3628	
5746	0	42340	
5747	0	4911	
5748	0	40680	
5749	0	3659	
5750	0	42695	
5751	0	4647	
5752	0	40774	
5753	0	4525	
5754	0	43757	
5755	0	4606	
5756	0	41756	
5757	0	4631	
5758	0	43429	
5759	0	4985	
5760	0	40942	
5761	0	3812	
5762	0	43038	
5763	0	4618	
5764	0	40872	
5765	0	4522	
5766	0	42458	
5767	0	4786	
5768	0	41778	
5769	0	3436	
5770	0	43293	
5771	0	4714	
5772	0	40664	
5773	0	4662	
5774	0	42836	
5775	0	4570	
5776	0	42216	
5777	0	3466	
5778	0	44122	
5779	0	3886	
5780	0	41736	
5781	0	4536	
5782	0	43448	
5783	0	5022	
5784	0	42368	
5785	0	5670	
5786	0	43463	
5787	0	4694	
5788	0	41970	
5789	0	5388	
5790	0	43968	
5791	0	5192	
5792	0	42953	
5793	0	5916	
5794	0	44400	
5795	0	5130	
5796	0	42938	
5797	0	5503	
5798	0	44016	
5799	0	5317	
5800	0	43954	
5801	0	5239	
5802	0	42713	
5803	0	5220	
5804	0	42669	
5805	0	5632	
5806	0	43604	
5807	0	5570	
5808	0	44039	
5809	0	5680	
5810	0	44226	
5811	0	4669	
5812	0	42733	
5813	0	5625	
5814	0	43356	
5815	0	4747	
5816	0	41759	
5817	0	5479	
5818	0	44632	
5819	0	4326	
5820	0	42301	
5821	0	5146	
5822	0	44022	
5823	0	4528	
5824	0	41714	
5825	0	4268	
5826	0	43974	
5827	0	4540	
5828	0	43096	
5829	0	3506	
5830	0	44200	
5831	0	4860	
5832	0	41991	
5833	0	3236	
5834	0	42968	
5835	0	4564	
5836	0	42040	
5837	0	3302	
5838	0	43744	
5839	0	4400	
5840	0	43220	
5841	0	3762	
5842	0	43760	
5843	0	4748	
5844	0	42650	
5845	0	3320	
5846	0	44052	
5847	0	3756	
5848	0	42200	
5849	0	3406	
5850	0	44288	
5851	0	4584	
5852	0	42550	
5853	0	3446	
5854	0	43660	
5855	0	4153	
5856	0	42616	
5857	0	3238	
5858	0	44141	
5859	0	4541	
5860	0	41812	
5861	0	3268	
5862	0	43446	
5863	0	4916	
5864	0	41991	
5865	0	3508	
5866	0	43876	
5867	0	4463	
5868	0	42232	
5869	0	3435	
5870	0	44423	
5871	0	4359	
5872	0	42060	
5873	0	3348	
5874	0	44296	
5875	0	4504	
5876	0	42008	
5877	0	3315	
5878	0	44452	
5879	0	4496	
5880	0	42872	
5881	0	3254	
5882	0	45096	
5883	0	4554	
5884	0	41506	
5885	0	3580	
5886	0	44494	
5887	0	4688	
5888	0	42660	
5889	0	3966	
5890	0	44422	
5891	0	4615	
5892	0	42192	
5893	0	3690	
5894	0	45928	
5895	0	3753	
5896	0	42410	
5897	0	4313	
5898	0	44264	
5899	0	4781	
5900	0	42886	
5901	0	3888	
5902	0	44573	
5903	0	4677	
5904	0	42208	
5905	0	3882	
5906	0	44588	
5907	0	4516	
5908	0	41657	
5909	0	3465	
5910	0	44781	
5911	0	4674	
5912	0	42420	
5913	0	4432	
5914	0	44992	
5915	0	4592	
5916	0	41926	
5917	0	4195	
5918	0	45032	
5919	0	4618	
5920	0	42128	
5921	0	4456	
5922	0	44976	
5923	0	4748	
5924	0	42594	
5925	0	4656	
5926	0	44935	
5927	0	4900	
5928	0	42597	
5929	0	4659	
5930	0	45144	
5931	0	4989	
5932	0	42225	
5933	0	4412	
5934	0	44640	
5935	0	5043	
5936	0	42488	
5937	0	4568	
5938	0	45356	
5939	0	5151	
5940	0	43338	
5941	0	4471	
5942	0	44429	
5943	0	4815	
5944	0	42744	
5945	0	4246	
5946	0	44676	
5947	0	4811	
5948	0	42552	
5949	0	4278	
5950	0	44347	
5951	0	4704	
5952	0	42720	
5953	0	4263	
5954	0	45016	
5955	0	4955	
5956	0	42210	
5957	0	3888	
5958	0	44804	
5959	0	4892	
5960	0	42397	
5961	0	3896	
5962	0	44609	
5963	0	4743	
5964	0	42914	
5965	0	3896	
5966	0	44916	
5967	0	4721	
5968	0	42698	
5969	0	3704	
5970	0	45124	
5971	0	4886	
5972	0	42084	
5973	0	3108	
5974	0	44482	
5975	0	4381	
5976	0	42114	
5977	0	3241	
5978	0	44776	
5979	0	4692	
5980	0	42700	
5981	0	3186	
5982	0	44423	
5983	0	4742	
5984	0	42990	
5985	0	3690	
5986	0	42567	
5987	0	6012	
5988	0	44772	
5989	0	14598	
5990	0	37656	
5991	0	4413	
5992	0	44922	
5993	0	18857	
5994	0	33618	
5995	0	5965	
5996	0	46328	
5997	0	15466	
5998	0	39042	
5999	0	4394	
6000	0	43364	
6001	0	4030	
6002	0	44164	
6003	0	6065	
6004	0	42188	
6005	0	3340	
6006	0	45100	
6007	0	7291	
6008	0	41312	
6009	0	3373	
6010	0	45020	
6011	0	7688	
6012	0	41280	
6013	0	3433	
6014	0	44992	
6015	0	9810	
6016	0	41138	
6017	0	3473	
6018	0	45792	
6019	0	8478	
6020	0	41759	
6021	0	4429	
6022	0	43904	
6023	0	12457	
6024	0	40024	
6025	0	3807	
6026	0	47776	
6027	0	33816	
6028	0	31944	
6029	0	3942	
6030	0	47108	
6031	0	34436	
6032	0	36674	
6033	0	4349	
6034	0	46545	
6035	0	24384	
6036	0	40513	
6037	0	3805	
6038	0	46364	
6039	0	29796	
6040	0	39328	
6041	0	3806	
6042	0	45633	
6043	0	18804	
6044	0	40533	
6045	0	3952	
6046	0	45464	
6047	0	18752	
6048	0	40368	
6049	0	4168	
6050	0	45028	
6051	0	18258	
6052	0	40484	
6053	0	4347	
6054	0	44998	
6055	0	12388	
6056	0	41952	
6057	0	4664	
6058	0	44730	
6059	0	14148	
6060	0	40756	
6061	0	4317	
6062	0	45272	
6063	0	17088	
6064	0	40546	
6065	0	3788	
6066	0	45707	
6067	0	10917	
6068	0	41824	
6069	0	4047	
6070	0	44740	
6071	0	7308	
6072	0	41768	
6073	0	4466	
6074	0	44117	
6075	0	6262	
6076	0	42157	
6077	0	4765	
6078	0	44380	
6079	0	6177	
6080	0	43128	
6081	0	4112	
6082	0	44037	
6083	0	5519	
6084	0	42576	
6085	0	3722	
6086	0	45146	
6087	0	6544	
6088	0	42262	
6089	0	3869	
6090	0	45120	
6091	0	8880	
6092	0	41479	
6093	0	3668	
6094	0	45523	
6095	0	7986	
6096	0	41888	
6097	0	5194	
6098	0	43829	
6099	0	5083	
6100	0	43920	
6101	0	25538	
6102	0	31368	
6103	0	5042	
6104	0	46056	
6105	0	35576	
6106	0	30684	
6107	0	7213	
6108	0	46471	
6109	0	8323	
6110	0	44441	
6111	0	10766	
6112	0	40664	
6113	0	3890	
6114	0	45348	
6115	0	10684	
6116	0	41242	
6117	0	3889	
6118	0	45706	
6119	0	10796	
6120	0	41853	
6121	0	4104	
6122	0	45356	
6123	0	21232	
6124	0	40144	
6125	0	3633	
6126	0	46589	
6127	0	27696	
6128	0	40268	
6129	0	3585	
6130	0	48160	
6131	0	33799	
6132	0	36048	
6133	0	4179	
6134	0	49705	
6135	0	34336	
6136	0	30963	
6137	0	4301	
6138	0	47769	
6139	0	25872	
6140	0	40816	
6141	0	4304	
6142	0	46425	
6143	0	13856	
6144	0	41252	
6145	0	4330	
6146	0	46256	
6147	0	15448	
6148	0	41372	
6149	0	4254	
6150	0	46087	
6151	0	15344	
6152	0	41476	
6153	0	4147	
6154	0	46648	
6155	0	17197	
6156	0	41321	
6157	0	3974	
6158	0	46780	
6159	0	17772	
6160	0	40912	
6161	0	3960	
6162	0	46616	
6163	0	14234	
6164	0	41410	
6165	0	4352	
6166	0	46480	
6167	0	14586	
6168	0	41260	
6169	0	4609	
6170	0	46280	
6171	0	15136	
6172	0	41561	
6173	0	4752	
6174	0	46008	
6175	0	13387	
6176	0	41668	
6177	0	5163	
6178	0	46056	
6179	0	13405	
6180	0	41929	
6181	0	5138	
6182	0	45714	
6183	0	14208	
6184	0	41944	
6185	0	5453	
6186	0	46186	
6187	0	14888	
6188	0	41185	
6189	0	4957	
6190	0	45970	
6191	0	14630	
6192	0	41841	
6193	0	5370	
6194	0	45832	
6195	0	13568	
6196	0	41528	
6197	0	5788	
6198	0	45860	
6199	0	13590	
6200	0	42324	
6201	0	6011	
6202	0	45812	
6203	0	13590	
6204	0	41479	
6205	0	5930	
6206	0	45904	
6207	0	14408	
6208	0	41760	
6209	0	5704	
6210	0	46128	
6211	0	15561	
6212	0	41400	
6213	0	5454	
6214	0	46240	
6215	0	16882	
6216	0	41448	
6217	0	5820	
6218	0	46112	
6219	0	15714	
6220	0	41904	
6221	0	5506	
6222	0	46296	
6223	0	15784	
6224	0	42196	
6225	0	5603	
6226	0	46306	
6227	0	15784	
6228	0	41768	
6229	0	5640	
6230	0	46134	
6231	0	15540	
6232	0	41834	
6233	0	5761	
6234	0	46328	
6235	0	16624	
6236	0	41513	
6237	0	5816	
6238	0	46204	
6239	0	16456	
6240	0	41950	
6241	0	5568	
6242	0	46368	
6243	0	15665	
6244	0	42213	
6245	0	5880	
6246	0	46444	
6247	0	16994	
6248	0	41656	
6249	0	6048	
6250	0	46532	
6251	0	18360	
6252	0	41942	
6253	0	6328	
6254	0	46490	
6255	0	16368	
6256	0	42029	
6257	0	6065	
6258	0	46256	
6259	0	16204	
6260	0	41938	
6261	0	6068	
6262	0	46384	
6263	0	16208	
6264	0	42140	
6265	0	6237	
6266	0	46569	
6267	0	17080	
6268	0	41600	
6269	0	6020	
6270	0	46739	
6271	0	16120	
6272	0	42136	
6273	0	6452	
6274	0	46459	
6275	0	16401	
6276	0	42184	
6277	0	6862	
6278	0	46396	
6279	0	16640	
6280	0	42465	
6281	0	6528	
6282	0	46188	
6283	0	15728	
6284	0	41806	
6285	0	6948	
6286	0	46517	
6287	0	16770	
6288	0	42608	
6289	0	7565	
6290	0	46472	
6291	0	16868	
6292	0	41789	
6293	0	7350	
6294	0	46788	
6295	0	18328	
6296	0	42084	
6297	0	7948	
6298	0	46536	
6299	0	18306	
6300	0	42104	
6301	0	8138	
6302	0	46416	
6303	0	18818	
6304	0	41952	
6305	0	7934	
6306	0	46912	
6307	0	19900	
6308	0	42301	
6309	0	8419	
6310	0	46996	
6311	0	19028	
6312	0	41746	
6313	0	8559	
6314	0	46649	
6315	0	18252	
6316	0	42488	
6317	0	8760	
6318	0	46592	
6319	0	18404	
6320	0	42344	
6321	0	8616	
6322	0	46755	
6323	0	19800	
6324	0	42396	
6325	0	8148	
6326	0	46832	
6327	0	17108	
6328	0	42661	
6329	0	8032	
6330	0	46706	
6331	0	17233	
6332	0	43004	
6333	0	7588	
6334	0	46920	
6335	0	16934	
6336	0	42466	
6337	0	7858	
6338	0	47029	
6339	0	17508	
6340	0	42224	
6341	0	7585	
6342	0	46874	
6343	0	18745	
6344	0	42354	
6345	0	7610	
6346	0	47368	
6347	0	17548	
6348	0	42545	
6349	0	6873	
6350	0	47080	
6351	0	17842	
6352	0	41896	
6353	0	6980	
6354	0	47238	
6355	0	17131	
6356	0	42471	
6357	0	7090	
6358	0	46818	
6359	0	16632	
6360	0	42493	
6361	0	7144	
6362	0	47178	
6363	0	16925	
6364	0	42132	
6365	0	7076	
6366	0	47004	
6367	0	16952	
6368	0	42813	
6369	0	7182	
6370	0	47208	
6371	0	16788	
6372	0	42375	
6373	0	7368	
6374	0	46792	
6375	0	15128	
6376	0	42213	
6377	0	7105	
6378	0	46616	
6379	0	15211	
6380	0	42492	
6381	0	7163	
6382	0	46648	
6383	0	16292	
6384	0	43139	
6385	0	7732	
6386	0	46890	
6387	0	16984	
6388	0	42566	
6389	0	7578	
6390	0	46584	
6391	0	17568	
6392	0	42545	
6393	0	7658	
6394	0	46874	
6395	0	17602	
6396	0	41607	
6397	0	7769	
6398	0	46860	
6399	0	18936	
6400	0	41914	
6401	0	7651	
6402	0	47133	
6403	0	17408	
6404	0	42308	
6405	0	8246	
6406	0	46900	
6407	0	18070	
6408	0	42394	
6409	0	8323	
6410	0	46792	
6411	0	17578	
6412	0	42324	
6413	0	8169	
6414	0	46984	
6415	0	17605	
6416	0	42532	
6417	0	8616	
6418	0	46692	
6419	0	17360	
6420	0	42148	
6421	0	8148	
6422	0	46874	
6423	0	17128	
6424	0	42529	
6425	0	8194	
6426	0	46944	
6427	0	16993	
6428	0	42350	
6429	0	7831	
6430	0	46890	
6431	0	16515	
6432	0	42024	
6433	0	8360	
6434	0	46456	
6435	0	17158	
6436	0	42296	
6437	0	7991	
6438	0	46716	
6439	0	16962	
6440	0	42888	
6441	0	7858	
6442	0	46616	
6443	0	16212	
6444	0	43552	
6445	0	7965	
6446	0	46768	
6447	0	18617	
6448	0	42923	
6449	0	7979	
6450	0	46466	
6451	0	17116	
6452	0	42628	
6453	0	8217	
6454	0	46532	
6455	0	15928	
6456	0	41797	
6457	0	7964	
6458	0	46599	
6459	0	16912	
6460	0	41920	
6461	0	8115	
6462	0	46912	
6463	0	17570	
6464	0	42584	
6465	0	7840	
6466	0	46912	
6467	0	17181	
6468	0	42137	
6469	0	8039	
6470	0	47040	
6471	0	19696	
6472	0	42326	
6473	0	9684	
6474	0	46756	
6475	0	21712	
6476	0	42688	
6477	0	10744	
6478	0	46560	
6479	0	22286	
6480	0	41848	
6481	0	10104	
6482	0	46952	
6483	0	19284	
6484	0	42520	
6485	0	8256	
6486	0	46675	
6487	0	18323	
6488	0	42288	
6489	0	8482	
6490	0	46576	
6491	0	18496	
6492	0	42424	
6493	0	8787	
6494	0	46994	
6495	0	17872	
6496	0	41864	
6497	0	8178	
6498	0	46706	
6499	0	17356	
6500	0	42244	
6501	0	8507	
6502	0	46724	
6503	0	16802	
6504	0	42600	
6505	0	8083	
6506	0	46552	
6507	0	17557	
6508	0	42439	
6509	0	8408	
6510	0	46516	
6511	0	17677	
6512	0	42348	
6513	0	8414	
6514	0	46444	
6515	0	17745	
6516	0	41862	
6517	0	8950	
6518	0	46028	
6519	0	18172	
6520	0	41330	
6521	0	8405	
6522	0	46314	
6523	0	18497	
6524	0	42278	
6525	0	8757	
6526	0	46280	
6527	0	19176	
6528	0	41850	
6529	0	9528	
6530	0	46482	
6531	0	17784	
6532	0	41936	
6533	0	9094	
6534	0	46740	
6535	0	20097	
6536	0	41636	
6537	0	9096	
6538	0	46432	
6539	0	20796	
6540	0	41644	
6541	0	9140	
6542	0	46320	
6543	0	18966	
6544	0	42084	
6545	0	9092	
6546	0	46061	
6547	0	19296	
6548	0	41952	
6549	0	8716	
6550	0	46784	
6551	0	20082	
6552	0	42226	
6553	0	9146	
6554	0	46608	
6555	0	18482	
6556	0	41798	
6557	0	9240	
6558	0	46456	
6559	0	19806	
6560	0	41828	
6561	0	9445	
6562	0	46541	
6563	0	20060	
6564	0	42384	
6565	0	8885	
6566	0	46444	
6567	0	19872	
6568	0	41392	
6569	0	9693	
6570	0	46504	
6571	0	20816	
6572	0	42064	
6573	0	9719	
6574	0	46370	
6575	0	19624	
6576	0	42233	
6577	0	9582	
6578	0	46296	
6579	0	19706	
6580	0	42217	
6581	0	10376	
6582	0	46160	
6583	0	19752	
6584	0	40888	
6585	0	12072	
6586	0	45480	
6587	0	18844	
6588	0	41940	
6589	0	15176	
6590	0	45024	
6591	0	22540	
6592	0	41968	
6593	0	15954	
6594	0	45588	
6595	0	24684	
6596	0	41842	
6597	0	19339	
6598	0	45952	
6599	0	30244	
6600	0	40802	
6601	0	22386	
6602	0	44700	
6603	0	33656	
6604	0	40388	
6605	0	24274	
6606	0	43816	
6607	0	33270	
6608	0	30907	
6609	0	31956	
6610	0	38464	
6611	0	33100	
6612	0	31280	
6613	0	32532	
6614	0	32964	
6615	0	31881	
6616	0	36713	
6617	0	34121	
6618	0	36764	
6619	0	32656	
6620	0	37924	
6621	0	34368	
6622	0	35192	
6623	0	32002	
6624	0	36564	
6625	0	33925	
6626	0	34653	
6627	0	32024	
6628	0	31013	
6629	0	32755	
6630	0	30691	
6631	0	31648	
6632	0	30784	
6633	0	32928	
6634	0	31965	
6635	0	32098	
6636	0	32979	
6637	0	33492	
6638	0	32826	
6639	0	32116	
6640	0	32703	
6641	0	33324	
6642	0	32758	
6643	0	32048	
6644	0	32756	
6645	0	33287	
6646	0	31656	
6647	0	31948	
6648	0	32320	
6649	0	33332	
6650	0	30328	
6651	0	31704	
6652	0	38380	
6653	0	34834	
6654	0	35422	
6655	0	32190	
6656	0	32154	
6657	0	32888	
6658	0	29944	
6659	0	31238	
6660	0	31185	
6661	0	33073	
6662	0	29950	
6663	0	31495	
6664	0	31648	
6665	0	33124	
6666	0	30996	
6667	0	31833	
6668	0	32577	
6669	0	33500	
6670	0	31208	
6671	0	31786	
6672	0	32893	
6673	0	33466	
6674	0	31156	
6675	0	31812	
6676	0	32304	
6677	0	33370	
6678	0	30514	
6679	0	31637	
6680	0	31465	
6681	0	33216	
6682	0	30312	
6683	0	31680	
6684	0	31852	
6685	0	33334	
6686	0	31144	
6687	0	31692	
6688	0	32411	
6689	0	33330	
6690	0	30576	
6691	0	31650	
6692	0	37992	
6693	0	34653	
6694	0	37488	
6695	0	32809	
6696	0	32640	
6697	0	33031	
6698	0	32036	
6699	0	31612	
6700	0	32498	
6701	0	33300	
6702	0	31280	
6703	0	31593	
6704	0	31583	
6705	0	33074	
6706	0	30878	
6707	0	31640	
6708	0	32448	
6709	0	33401	
6710	0	30466	
6711	0	31596	
6712	0	37949	
6713	0	34722	
6714	0	35832	
6715	0	32290	
6716	0	38352	
6717	0	34304	
6718	0	36960	
6719	0	32506	
6720	0	32240	
6721	0	32775	
6722	0	31454	
6723	0	31711	
6724	0	32440	
6725	0	33212	
6726	0	30924	
6727	0	31652	
6728	0	32206	
6729	0	33252	
6730	0	31204	
6731	0	31780	
6732	0	31815	
6733	0	33258	
6734	0	31184	
6735	0	31901	
6736	0	38082	
6737	0	34704	
6738	0	36105	
6739	0	32400	
6740	0	32526	
6741	0	33026	
6742	0	30688	
6743	0	31458	
6744	0	32308	
6745	0	33276	
6746	0	31490	
6747	0	31798	
6748	0	31900	
6749	0	33284	
6750	0	31453	
6751	0	31897	
6752	0	31481	
6753	0	33223	
6754	0	30850	
6755	0	31657	
6756	0	32246	
6757	0	33456	
6758	0	31204	
6759	0	31700	
6760	0	31378	
6761	0	33178	
6762	0	31478	
6763	0	31856	
6764	0	31577	
6765	0	33182	
6766	0	30196	
6767	0	31442	
6768	0	31338	
6769	0	33220	
6770	0	31418	
6771	0	31948	
6772	0	31652	
6773	0	33282	
6774	0	31751	
6775	0	31981	
6776	0	38041	
6777	0	34605	
6778	0	35356	
6779	0	32037	
6780	0	31866	
6781	0	32968	
6782	0	31942	
6783	0	31704	
6784	0	32325	
6785	0	33340	
6786	0	31948	
6787	0	31768	
6788	0	32722	
6789	0	33472	
6790	0	31160	
6791	0	31358	
6792	0	37076	
6793	0	34490	
6794	0	35808	
6795	0	32392	
6796	0	31412	
6797	0	32814	
6798	0	31644	
6799	0	31544	
6800	0	37890	
6801	0	34660	
6802	0	37072	
6803	0	32480	
6804	0	38244	
6805	0	34291	
6806	0	37616	
6807	0	32452	
6808	0	37904	
6809	0	34028	
6810	0	35792	
6811	0	32050	
6812	0	31238	
6813	0	32674	
6814	0	30536	
6815	0	31313	
6816	0	37822	
6817	0	34652	
6818	0	37612	
6819	0	32920	
6820	0	33062	
6821	0	33072	
6822	0	31396	
6823	0	31376	
6824	0	32196	
6825	0	33359	
6826	0	31160	
6827	0	31696	
6828	0	31661	
6829	0	33152	
6830	0	31804	
6831	0	31970	
6832	0	32424	
6833	0	33358	
6834	0	30512	
6835	0	31516	
6836	0	31408	
6837	0	33085	
6838	0	31024	
6839	0	31635	
6840	0	31038	
6841	0	33150	
6842	0	31540	
6843	0	31916	
6844	0	38321	
6845	0	34708	
6846	0	36669	
6847	0	32550	
6848	0	32344	
6849	0	33110	
6850	0	31120	
6851	0	31361	
6852	0	30663	
6853	0	33024	
6854	0	30372	
6855	0	31511	
6856	0	37631	
6857	0	34631	
6858	0	37028	
6859	0	32829	
6860	0	32519	
6861	0	33085	
6862	0	30626	
6863	0	31290	
6864	0	31600	
6865	0	33164	
6866	0	31273	
6867	0	31868	
6868	0	37614	
6869	0	34560	
6870	0	36144	
6871	0	32489	
6872	0	31624	
6873	0	32856	
6874	0	31058	
6875	0	31492	
6876	0	30984	
6877	0	32961	
6878	0	31200	
6879	0	31778	
6880	0	37964	
6881	0	34617	
6882	0	36332	
6883	0	32428	
6884	0	31935	
6885	0	33024	
6886	0	30836	
6887	0	31552	
6888	0	30653	
6889	0	32895	
6890	0	31289	
6891	0	31798	
6892	0	32608	
6893	0	33517	
6894	0	31060	
6895	0	31524	
6896	0	30594	
6897	0	32984	
6898	0	31437	
6899	0	31901	
6900	0	32404	
6901	0	33336	
6902	0	31864	
6903	0	31805	
6904	0	31784	
6905	0	33253	
6906	0	31148	
6907	0	31691	
6908	0	31104	
6909	0	33083	
6910	0	31275	
6911	0	31764	
6912	0	32095	
6913	0	33480	
6914	0	31464	
6915	0	31815	
6916	0	32692	
6917	0	33404	
6918	0	31596	
6919	0	31815	
6920	0	31872	
6921	0	33341	
6922	0	31392	
6923	0	31800	
6924	0	31189	
6925	0	33045	
6926	0	31625	
6927	0	31925	
6928	0	31642	
6929	0	33265	
6930	0	30853	
6931	0	31653	
6932	0	31524	
6933	0	33168	
6934	0	30348	
6935	0	31602	
6936	0	31128	
6937	0	33122	
6938	0	31280	
6939	0	31833	
6940	0	32176	
6941	0	33433	
6942	0	31552	
6943	0	31792	
6944	0	30710	
6945	0	33012	
6946	0	30742	
6947	0	31526	
6948	0	31309	
6949	0	33144	
6950	0	30052	
6951	0	31401	
6952	0	30928	
6953	0	33262	
6954	0	31577	
6955	0	31957	
6956	0	38614	
6957	0	34876	
6958	0	38704	
6959	0	33026	
6960	0	32676	
6961	0	32964	
6962	0	30933	
6963	0	31216	
6964	0	31149	
6965	0	33181	
6966	0	31052	
6967	0	31656	
6968	0	31530	
6969	0	33189	
6970	0	31841	
6971	0	31974	
6972	0	31708	
6973	0	33220	
6974	0	31644	
6975	0	31830	
6976	0	31972	
6977	0	33350	
6978	0	31716	
6979	0	31744	
6980	0	31879	
6981	0	33396	
6982	0	30952	
6983	0	31553	
6984	0	37971	
6985	0	34778	
6986	0	36896	
6987	0	32528	
6988	0	31674	
6989	0	32854	
6990	0	30484	
6991	0	31208	
6992	0	31200	
6993	0	33108	
6994	0	31529	
6995	0	31716	
6996	0	32009	
6997	0	33414	
6998	0	31228	
6999	0	31320	
7000	0	32182	
7001	0	33444	
7002	0	31404	
7003	0	31653	
7004	0	38200	
7005	0	34688	
7006	0	37904	
7007	0	32662	
7008	0	32086	
7009	0	32880	
7010	0	31136	
7011	0	31552	
7012	0	31034	
7013	0	33080	
7014	0	31280	
7015	0	31640	
7016	0	38608	
7017	0	34892	
7018	0	36744	
7019	0	32480	
7020	0	32624	
7021	0	33148	
7022	0	31768	
7023	0	31612	
7024	0	31528	
7025	0	33125	
7026	0	31365	
7027	0	31664	
7028	0	38407	
7029	0	34864	
7030	0	35818	
7031	0	32328	
7032	0	32536	
7033	0	33194	
7034	0	30842	
7035	0	31192	
7036	0	31080	
7037	0	33117	
7038	0	32200	
7039	0	31898	
7040	0	31751	
7041	0	33267	
7042	0	31716	
7043	0	31796	
7044	0	31856	
7045	0	33287	
7046	0	30665	
7047	0	31469	
7048	0	31419	
7049	0	33285	
7050	0	31100	
7051	0	31709	
7052	0	31464	
7053	0	33194	
7054	0	30960	
7055	0	31751	
7056	0	39200	
7057	0	34973	
7058	0	39352	
7059	0	32908	
7060	0	32228	
7061	0	32949	
7062	0	31079	
7063	0	31332	
7064	0	31264	
7065	0	33188	
7066	0	31665	
7067	0	31828	
7068	0	31735	
7069	0	33402	
7070	0	30744	
7071	0	31485	
7072	0	31702	
7073	0	33339	
7074	0	31312	
7075	0	31687	
7076	0	38671	
7077	0	34880	
7078	0	37658	
7079	0	32712	
7080	0	32180	
7081	0	33048	
7082	0	30441	
7083	0	31154	
7084	0	31376	
7085	0	33200	
7086	0	30452	
7087	0	31374	
7088	0	38281	
7089	0	34823	
7090	0	36624	
7091	0	32246	
7092	0	32732	
7093	0	33212	
7094	0	30844	
7095	0	31364	
7096	0	32480	
7097	0	33440	
7098	0	32048	
7099	0	31800	
7100	0	32105	
7101	0	33343	
7102	0	31018	
7103	0	31520	
7104	0	31830	
7105	0	33497	
7106	0	31692	
7107	0	31751	
7108	0	39215	
7109	0	35028	
7110	0	38080	
7111	0	32421	
7112	0	31762	
7113	0	32904	
7114	0	31276	
7115	0	31504	
7116	0	31495	
7117	0	33193	
7118	0	31162	
7119	0	31619	
7120	0	38099	
7121	0	34772	
7122	0	38104	
7123	0	32851	
7124	0	32340	
7125	0	32956	
7126	0	31364	
7127	0	31511	
7128	0	30884	
7129	0	33092	
7130	0	31220	
7131	0	31554	
7132	0	32737	
7133	0	33492	
7134	0	30997	
7135	0	31129	
7136	0	38057	
7137	0	34820	
7138	0	38504	
7139	0	32760	
7140	0	32296	
7141	0	33064	
7142	0	31748	
7143	0	31512	
7144	0	31546	
7145	0	33188	
7146	0	31220	
7147	0	31572	
7148	0	32140	
7149	0	33372	
7150	0	32233	
7151	0	31777	
7152	0	38706	
7153	0	34898	
7154	0	38156	
7155	0	32564	
7156	0	32516	
7157	0	33125	
7158	0	32104	
7159	0	31653	
7160	0	32456	
7161	0	33440	
7162	0	30906	
7163	0	31087	
7164	0	30836	
7165	0	33200	
7166	0	32069	
7167	0	31890	
7168	0	32020	
7169	0	33430	
7170	0	31156	
7171	0	31562	
7172	0	31849	
7173	0	33350	
7174	0	31992	
7175	0	31894	
7176	0	31375	
7177	0	33193	
7178	0	31352	
7179	0	31611	
7180	0	31768	
7181	0	33342	
7182	0	31424	
7183	0	31431	
7184	0	31452	
7185	0	33304	
7186	0	30848	
7187	0	31225	
7188	0	38480	
7189	0	34992	
7190	0	38354	
7191	0	32722	
7192	0	31939	
7193	0	32992	
7194	0	31520	
7195	0	31463	
7196	0	31064	
7197	0	33108	
7198	0	31064	
7199	0	31644	
7200	0	31481	
7201	0	33242	
7202	0	31816	
7203	0	31686	
7204	0	39266	
7205	0	35119	
7206	0	38498	
7207	0	32502	
7208	0	32376	
7209	0	33102	
7210	0	32366	
7211	0	31676	
7212	0	32272	
7213	0	33265	
7214	0	31776	
7215	0	31638	
7216	0	30888	
7217	0	33045	
7218	0	30448	
7219	0	31332	
7220	0	38534	
7221	0	35088	
7222	0	38364	
7223	0	32895	
7224	0	32300	
7225	0	32941	
7226	0	31067	
7227	0	31536	
7228	0	32345	
7229	0	33390	
7230	0	31481	
7231	0	31688	
7232	0	30380	
7233	0	33368	
7234	0	30100	
7235	0	31402	
7236	0	29824	
7237	0	33494	
7238	0	30432	
7239	0	32092	
7240	0	31996	
7241	0	32610	
7242	0	32568	
7243	0	31190	
7244	0	31740	
7245	0	34929	
7246	0	32196	
7247	0	31735	
7248	0	31296	
7249	0	33460	
7250	0	29766	
7251	0	31656	
7252	0	31533	
7253	0	29873	
7254	0	30446	
7255	0	30408	
7256	0	39224	
7257	0	34800	
7258	0	39066	
7259	0	32922	
7260	0	33024	
7261	0	33768	
7262	0	46353	
7263	0	33314	
7264	0	33148	
7265	0	32751	
7266	0	50824	
7267	0	33932	
7268	0	30038	
7269	0	32646	
7270	0	47044	
7271	0	33712	
7272	0	44228	
7273	0	34940	
7274	0	55692	
7275	0	34328	
7276	0	42860	
7277	0	34116	
7278	0	55216	
7279	0	34432	
7280	0	44708	
7281	0	35258	
7282	0	53504	
7283	0	32352	
7284	0	42818	
7285	0	34796	
7286	0	49892	
7287	0	33356	
7288	0	43008	
7289	0	34632	
7290	0	50472	
7291	0	32682	
7292	0	43527	
7293	0	33426	
7294	0	53208	
7295	0	33960	
7296	0	40840	
7297	0	33688	
7298	0	54912	
7299	0	32724	
7300	0	28336	
7301	0	33068	
7302	0	42106	
7303	0	32160	
7304	0	43898	
7305	0	35564	
7306	0	58048	
7307	0	33742	
7308	0	41966	
7309	0	35348	
7310	0	56170	
7311	0	34823	
7312	0	38904	
7313	0	35579	
7314	0	55488	
7315	0	34062	
7316	0	43786	
7317	0	33948	
7318	0	53992	
7319	0	32101	
7320	0	41991	
7321	0	34976	
7322	0	51272	
7323	0	35399	
7324	0	39960	
7325	0	35444	
7326	0	45080	
7327	0	32280	
7328	0	37792	
7329	0	34250	
7330	0	41128	
7331	0	32456	
7332	0	38384	
7333	0	34136	
7334	0	40288	
7335	0	32500	
7336	0	30476	
7337	0	32671	
7338	0	32812	
7339	0	30816	
7340	0	28806	
7341	0	32956	
7342	0	31520	
7343	0	31320	
7344	0	30285	
7345	0	33208	
7346	0	32588	
7347	0	31928	
7348	0	30993	
7349	0	32760	
7350	0	31840	
7351	0	31044	
7352	0	30377	
7353	0	33102	
7354	0	30928	
7355	0	30908	
7356	0	30492	
7357	0	33448	
7358	0	32331	
7359	0	31677	
7360	0	31298	
7361	0	33272	
7362	0	31603	
7363	0	31328	
7364	0	30754	
7365	0	33285	
7366	0	31027	
7367	0	31102	
7368	0	39261	
7369	0	35046	
7370	0	40386	
7371	0	32864	
7372	0	31980	
7373	0	32838	
7374	0	33956	
7375	0	30712	
7376	0	30331	
7377	0	33273	
7378	0	33044	
7379	0	31168	
7380	0	30978	
7381	0	33176	
7382	0	32398	
7383	0	31584	
7384	0	31554	
7385	0	33141	
7386	0	31952	
7387	0	31225	
7388	0	39036	
7389	0	35000	
7390	0	39602	
7391	0	32114	
7392	0	32021	
7393	0	32966	
7394	0	31078	
7395	0	31256	
7396	0	29601	
7397	0	32640	
7398	0	30213	
7399	0	31425	
7400	0	30563	
7401	0	33306	
7402	0	31239	
7403	0	30973	
7404	0	29560	
7405	0	33075	
7406	0	30502	
7407	0	31231	
7408	0	29084	
7409	0	32929	
7410	0	30392	
7411	0	30864	
7412	0	30049	
7413	0	33020	
7414	0	30972	
7415	0	31268	
7416	0	29739	
7417	0	32858	
7418	0	30328	
7419	0	30990	
7420	0	39128	
7421	0	35419	
7422	0	39089	
7423	0	32423	
7424	0	31901	
7425	0	33048	
7426	0	31380	
7427	0	29804	
7428	0	39300	
7429	0	34184	
7430	0	39928	
7431	0	32288	
7432	0	32033	
7433	0	33351	
7434	0	31989	
7435	0	31320	
7436	0	31509	
7437	0	33076	
7438	0	32046	
7439	0	31520	
7440	0	31781	
7441	0	33391	
7442	0	31688	
7443	0	31097	
7444	0	30758	
7445	0	33229	
7446	0	31824	
7447	0	31145	
7448	0	40946	
7449	0	34725	
7450	0	37632	
7451	0	32064	
7452	0	31623	
7453	0	33132	
7454	0	30800	
7455	0	30580	
7456	0	30157	
7457	0	33287	
7458	0	30368	
7459	0	31516	
7460	0	31026	
7461	0	33481	
7462	0	32057	
7463	0	31577	
7464	0	31814	
7465	0	33498	
7466	0	32428	
7467	0	31648	
7468	0	31366	
7469	0	33296	
7470	0	30277	
7471	0	30948	
7472	0	29980	
7473	0	33057	
7474	0	31175	
7475	0	31656	
7476	0	28888	
7477	0	32902	
7478	0	30364	
7479	0	31560	
7480	0	29154	
7481	0	32897	
7482	0	31453	
7483	0	31656	
7484	0	30540	
7485	0	33112	
7486	0	30482	
7487	0	30937	
7488	0	29983	
7489	0	33060	
7490	0	30757	
7491	0	31239	
7492	0	37528	
7493	0	35528	
7494	0	37032	
7495	0	31960	
7496	0	31834	
7497	0	33414	
7498	0	30813	
7499	0	30884	
7500	0	29671	
7501	0	32996	
7502	0	30740	
7503	0	31478	
7504	0	29830	
7505	0	33421	
7506	0	31176	
7507	0	31224	
7508	0	30215	
7509	0	33376	
7510	0	29820	
7511	0	30695	
7512	0	40336	
7513	0	34780	
7514	0	37968	
7515	0	31489	
7516	0	32263	
7517	0	33298	
7518	0	30030	
7519	0	33735	
7520	0	26721	
7521	0	34236	
7522	0	30884	
7523	0	33269	
7524	0	29316	
7525	0	34756	
7526	0	31248	
7527	0	32892	
7528	0	28588	
7529	0	33876	
7530	0	27208	
7531	0	32585	
7532	0	38330	
7533	0	31500	
7534	0	46472	
7535	0	32924	
7536	0	35882	
7537	0	34521	
7538	0	62112	
7539	0	33616	
7540	0	33583	
7541	0	32532	
7542	0	64608	
7543	0	34822	
7544	0	26006	
7545	0	22746	
7546	0	65528	
7547	0	35616	
7548	0	51656	
7549	0	31396	
7550	0	62888	
7551	0	30032	
7552	0	50800	
7553	0	37716	
7554	0	61748	
7555	0	32780	
7556	0	50552	
7557	0	37738	
7558	0	53448	
7559	0	39965	
7560	0	57028	
7561	0	33058	
7562	0	56068	
7563	0	32116	
7564	0	50038	
7565	0	32516	
7566	0	62316	
7567	0	35052	
7568	0	47508	
7569	0	24544	
7570	0	62820	
7571	0	33938	
7572	0	42626	
7573	0	12852	
7574	0	63352	
7575	0	33101	
7576	0	49504	
7577	0	18370	
7578	0	62770	
7579	0	24082	
7580	0	51760	
7581	0	26348	
7582	0	58232	
7583	0	25688	
7584	0	55868	
7585	0	37029	
7586	0	61600	
7587	0	26256	
7588	0	50294	
7589	0	38304	
7590	0	54492	
7591	0	32680	
7592	0	49768	
7593	0	38498	
7594	0	42328	
7595	0	27685	
7596	0	45343	
7597	0	36846	
7598	0	58224	
7599	0	33544	
7600	0	43406	
7601	0	35465	
7602	0	62572	
7603	0	34724	
7604	0	27258	
7605	0	31944	
7606	0	45728	
7607	0	33173	
7608	0	45916	
7609	0	35906	
7610	0	51718	
7611	0	33509	
7612	0	26344	
7613	0	31168	
7614	0	31728	
7615	0	30968	
7616	0	40116	
7617	0	34184	
7618	0	41808	
7619	0	32354	
7620	0	29761	
7621	0	32680	
7622	0	32240	
7623	0	30038	
7624	0	27903	
7625	0	32928	
7626	0	31184	
7627	0	31288	
7628	0	40144	
7629	0	34915	
7630	0	42760	
7631	0	32619	
7632	0	31472	
7633	0	32705	
7634	0	38084	
7635	0	31264	
7636	0	31372	
7637	0	32307	
7638	0	37584	
7639	0	32052	
7640	0	30949	
7641	0	33068	
7642	0	35780	
7643	0	30250	
7644	0	29285	
7645	0	33264	
7646	0	31684	
7647	0	31201	
7648	0	39791	
7649	0	35847	
7650	0	41176	
7651	0	31902	
7652	0	28146	
7653	0	31856	
7654	0	31524	
7655	0	30872	
7656	0	39564	
7657	0	35143	
7658	0	46746	
7659	0	31978	
7660	0	29330	
7661	0	32840	
7662	0	33808	
7663	0	31152	
7664	0	29388	
7665	0	32710	
7666	0	33468	
7667	0	30809	
7668	0	28932	
7669	0	32788	
7670	0	31560	
7671	0	30414	
7672	0	39046	
7673	0	35214	
7674	0	43241	
7675	0	32140	
7676	0	30362	
7677	0	32761	
7678	0	32924	
7679	0	30776	
7680	0	28879	
7681	0	33098	
7682	0	32774	
7683	0	31034	
7684	0	29213	
7685	0	33270	
7686	0	31449	
7687	0	31616	
7688	0	29638	
7689	0	32720	
7690	0	33616	
7691	0	30848	
7692	0	27312	
7693	0	32344	
7694	0	33260	
7695	0	31096	
7696	0	28499	
7697	0	32481	
7698	0	32888	
7699	0	31640	
7700	0	29748	
7701	0	33008	
7702	0	30149	
7703	0	31526	
7704	0	41504	
7705	0	36088	
7706	0	41185	
7707	0	32139	
7708	0	30983	
7709	0	33078	
7710	0	33452	
7711	0	30504	
7712	0	28424	
7713	0	33104	
7714	0	32455	
7715	0	31430	
7716	0	29696	
7717	0	32960	
7718	0	35092	
7719	0	31213	
7720	0	29613	
7721	0	32934	
7722	0	35553	
7723	0	31040	
7724	0	30374	
7725	0	31476	
7726	0	34552	
7727	0	31073	
7728	0	29508	
7729	0	32996	
7730	0	31138	
7731	0	31144	
7732	0	27444	
7733	0	33148	
7734	0	32118	
7735	0	31416	
7736	0	28947	
7737	0	33188	
7738	0	33208	
7739	0	31421	
7740	0	41428	
7741	0	35654	
7742	0	44592	
7743	0	32866	
7744	0	32225	
7745	0	33320	
7746	0	36776	
7747	0	30418	
7748	0	28712	
7749	0	32600	
7750	0	33876	
7751	0	30659	
7752	0	30476	
7753	0	33037	
7754	0	34736	
7755	0	30646	
7756	0	28362	
7757	0	32704	
7758	0	33892	
7759	0	30919	
7760	0	29360	
7761	0	32982	
7762	0	33428	
7763	0	32172	
7764	0	27468	
7765	0	33792	
7766	0	31656	
7767	0	31076	
7768	0	30153	
7769	0	33232	
7770	0	34504	
7771	0	31002	
7772	0	29064	
7773	0	32900	
7774	0	34664	
7775	0	30756	
7776	0	28316	
7777	0	32784	
7778	0	34020	
7779	0	31270	
7780	0	29640	
7781	0	33222	
7782	0	35176	
7783	0	31371	
7784	0	29368	
7785	0	32814	
7786	0	34698	
7787	0	30988	
7788	0	28487	
7789	0	32617	
7790	0	35203	
7791	0	31048	
7792	0	27746	
7793	0	33232	
7794	0	35884	
7795	0	31111	
7796	0	29850	
7797	0	33300	
7798	0	35746	
7799	0	30877	
7800	0	28592	
7801	0	33283	
7802	0	29544	
7803	0	30528	
7804	0	37885	
7805	0	36544	
7806	0	43312	
7807	0	32308	
7808	0	40864	
7809	0	35941	
7810	0	40876	
7811	0	29577	
7812	0	31352	
7813	0	30388	
7814	0	33750	
7815	0	31121	
7816	0	46680	
7817	0	37845	
7818	0	37482	
7819	0	33774	
7820	0	28448	
7821	0	33412	
7822	0	37752	
7823	0	30572	
7824	0	28312	
7825	0	32772	
7826	0	50384	
7827	0	31996	
7828	0	30802	
7829	0	35335	
7830	0	59476	
7831	0	36792	
7832	0	27818	
7833	0	31842	
7834	0	60423	
7835	0	33972	
7836	0	47389	
7837	0	36160	
7838	0	60968	
7839	0	35203	
7840	0	49839	
7841	0	32972	
7842	0	60700	
7843	0	33367	
7844	0	45760	
7845	0	38004	
7846	0	60764	
7847	0	34416	
7848	0	46116	
7849	0	36832	
7850	0	61248	
7851	0	30727	
7852	0	50872	
7853	0	37830	
7854	0	60772	
7855	0	34521	
7856	0	47876	
7857	0	36154	
7858	0	61040	
7859	0	34504	
7860	0	49448	
7861	0	34872	
7862	0	60740	
7863	0	34128	
7864	0	52344	
7865	0	35380	
7866	0	61336	
7867	0	37264	
7868	0	48848	
7869	0	35424	
7870	0	61344	
7871	0	35062	
7872	0	49922	
7873	0	36568	
7874	0	60832	
7875	0	33744	
7876	0	52440	
7877	0	34182	
7878	0	60740	
7879	0	34207	
7880	0	58017	
7881	0	33489	
7882	0	59280	
7883	0	34568	
7884	0	44322	
7885	0	35440	
7886	0	58764	
7887	0	33084	
7888	0	27794	
7889	0	31879	
7890	0	47056	
7891	0	30779	
7892	0	40852	
7893	0	35150	
7894	0	58465	
7895	0	33588	
7896	0	31685	
7897	0	32132	
7898	0	46872	
7899	0	31028	
7900	0	43700	
7901	0	35584	
7902	0	58128	
7903	0	32964	
7904	0	29295	
7905	0	31184	
7906	0	31496	
7907	0	30496	
7908	0	26268	
7909	0	31780	
7910	0	31797	
7911	0	30257	
7912	0	38156	
7913	0	35185	
7914	0	57876	
7915	0	33168	
7916	0	29069	
7917	0	32420	
7918	0	44828	
7919	0	30989	
7920	0	29022	
7921	0	32796	
7922	0	45528	
7923	0	31691	
7924	0	28802	
7925	0	32920	
7926	0	44296	
7927	0	31504	
7928	0	28010	
7929	0	32292	
7930	0	41528	
7931	0	31630	
7932	0	28052	
7933	0	32221	
7934	0	39180	
7935	0	30885	
7936	0	25577	
7937	0	32097	
7938	0	36928	
7939	0	31658	
7940	0	28396	
7941	0	33100	
7942	0	44230	
7943	0	31316	
7944	0	44652	
7945	0	36525	
7946	0	58534	
7947	0	33042	
7948	0	29868	
7949	0	32605	
7950	0	42456	
7951	0	31346	
7952	0	27854	
7953	0	32386	
7954	0	40804	
7955	0	31024	
7956	0	28580	
7957	0	33320	
7958	0	37240	
7959	0	30383	
7960	0	40596	
7961	0	35876	
7962	0	55216	
7963	0	32544	
7964	0	29703	
7965	0	32501	
7966	0	41152	
7967	0	29852	
7968	0	28284	
7969	0	32352	
7970	0	43952	
7971	0	30717	
7972	0	42236	
7973	0	35037	
7974	0	55326	
7975	0	33012	
7976	0	29862	
7977	0	32292	
7978	0	41288	
7979	0	30214	
7980	0	44236	
7981	0	35704	
7982	0	58596	
7983	0	33070	
7984	0	30237	
7985	0	32713	
7986	0	42024	
7987	0	31258	
7988	0	29795	
7989	0	31497	
7990	0	41860	
7991	0	30764	
7992	0	27872	
7993	0	32243	
7994	0	35143	
7995	0	31108	
7996	0	28000	
7997	0	33174	
7998	0	42028	
7999	0	29524	
8000	0	30141	
8001	0	33126	
8002	0	46936	
8003	0	30864	
8004	0	28596	
8005	0	32836	
8006	0	42556	
8007	0	30002	
8008	0	41620	
8009	0	35524	
8010	0	53488	
8011	0	33094	
8012	0	30320	
8013	0	32753	
8014	0	43588	
8015	0	30392	
8016	0	38770	
8017	0	35150	
8018	0	52832	
8019	0	33056	
8020	0	47772	
8021	0	34615	
8022	0	56983	
8023	0	32302	
8024	0	29900	
8025	0	31990	
8026	0	40284	
8027	0	30485	
8028	0	28864	
8029	0	32870	
8030	0	45892	
8031	0	30882	
8032	0	28794	
8033	0	32336	
8034	0	41502	
8035	0	31484	
8036	0	29010	
8037	0	32912	
8038	0	45760	
8039	0	30801	
8040	0	40967	
8041	0	35548	
8042	0	57301	
8043	0	33210	
8044	0	29788	
8045	0	32012	
8046	0	42490	
8047	0	30209	
8048	0	30536	
8049	0	33232	
8050	0	46520	
8051	0	30416	
8052	0	29506	
8053	0	33068	
8054	0	45488	
8055	0	31165	
8056	0	28604	
8057	0	31980	
8058	0	42656	
8059	0	30517	
8060	0	29047	
8061	0	33106	
8062	0	39224	
8063	0	31474	
8064	0	28569	
8065	0	32986	
8066	0	42508	
8067	0	30569	
8068	0	28861	
8069	0	31826	
8070	0	42944	
8071	0	30909	
8072	0	26976	
8073	0	31950	
8074	0	40898	
8075	0	31090	
8076	0	28508	
8077	0	32322	
8078	0	42808	
8079	0	30741	
8080	0	28310	
8081	0	32540	
8082	0	38080	
8083	0	31212	
8084	0	28804	
8085	0	32468	
8086	0	44584	
8087	0	30444	
8088	0	30376	
8089	0	32562	
8090	0	44354	
8091	0	30854	
8092	0	40408	
8093	0	35556	
8094	0	57136	
8095	0	32800	
8096	0	28692	
8097	0	31869	
8098	0	40804	
8099	0	30632	
8100	0	29328	
8101	0	33027	
8102	0	44738	
8103	0	30968	
8104	0	28944	
8105	0	32904	
8106	0	41344	
8107	0	30511	
8108	0	29520	
8109	0	33092	
8110	0	42570	
8111	0	30381	
8112	0	42336	
8113	0	35072	
8114	0	56584	
8115	0	32757	
8116	0	29348	
8117	0	32465	
8118	0	38804	
8119	0	30689	
8120	0	27705	
8121	0	32188	
8122	0	42476	
8123	0	30576	
8124	0	27712	
8125	0	32445	
8126	0	35434	
8127	0	30621	
8128	0	47228	
8129	0	36154	
8130	0	49568	
8131	0	31204	
8132	0	29368	
8133	0	30968	
8134	0	38784	
8135	0	30481	
8136	0	28608	
8137	0	31683	
8138	0	34700	
8139	0	32098	
8140	0	38352	
8141	0	36944	
8142	0	46036	
8143	0	31448	
8144	0	43976	
8145	0	35935	
8146	0	52360	
8147	0	30646	
8148	0	44841	
8149	0	35660	
8150	0	47904	
8151	0	31884	
8152	0	30535	
8153	0	33010	
8154	0	45268	
8155	0	30248	
8156	0	28760	
8157	0	33420	
8158	0	41068	
8159	0	31552	
8160	0	41263	
8161	0	36122	
8162	0	56664	
8163	0	31952	
8164	0	30024	
8165	0	33152	
8166	0	43664	
8167	0	30297	
8168	0	28212	
8169	0	31944	
8170	0	40672	
8171	0	31138	
8172	0	29848	
8173	0	32433	
8174	0	47800	
8175	0	31384	
8176	0	30840	
8177	0	32096	
8178	0	47000	
8179	0	29771	
8180	0	29537	
8181	0	32916	
8182	0	42746	
8183	0	30928	
8184	0	41042	
8185	0	35889	
8186	0	56512	
8187	0	32484	
8188	0	29720	
8189	0	31252	
8190	0	46764	
8191	0	31170	
8192	0	27874	
8193	0	33060	
8194	0	44012	
8195	0	31504	
8196	0	29556	
8197	0	33844	
8198	0	47152	
8199	0	30512	
8200	0	29337	
8201	0	32893	
8202	0	45600	
8203	0	30292	
8204	0	28154	
8205	0	32296	
8206	0	39164	
8207	0	30649	
8208	0	28369	
8209	0	32172	
8210	0	33090	
8211	0	31021	
8212	0	29500	
8213	0	33302	
8214	0	47282	
8215	0	32072	
8216	0	32397	
8217	0	34009	
8218	0	40842	
8219	0	31692	
8220	0	30919	
8221	0	33249	
8222	0	36774	
8223	0	31239	
8224	0	31517	
8225	0	33916	
8226	0	40740	
8227	0	30151	
8228	0	32107	
8229	0	33769	
8230	0	34944	
8231	0	31149	
8232	0	32032	
8233	0	33704	
8234	0	32996	
8235	0	30912	
8236	0	30872	
8237	0	33531	
8238	0	31864	
8239	0	31151	
8240	0	30748	
8241	0	33176	
8242	0	32286	
8243	0	30898	
8244	0	32303	
8245	0	33810	
8246	0	33304	
8247	0	31280	
8248	0	31593	
8249	0	33420	
8250	0	33504	
8251	0	30908	
8252	0	30724	
8253	0	33666	
8254	0	34816	
8255	0	30724	
8256	0	30304	
8257	0	33353	
8258	0	31444	
8259	0	31338	
8260	0	30804	
8261	0	33528	
8262	0	31840	
8263	0	31398	
8264	0	38000	
8265	0	35712	
8266	0	42752	
8267	0	32029	
8268	0	32152	
8269	0	33401	
8270	0	33200	
8271	0	30585	
8272	0	30402	
8273	0	33204	
8274	0	31776	
8275	0	30878	
8276	0	31054	
8277	0	33439	
8278	0	31832	
8279	0	31712	
8280	0	30312	
8281	0	33640	
8282	0	32220	
8283	0	31209	
8284	0	31354	
8285	0	33760	
8286	0	32728	
8287	0	31059	
8288	0	31576	
8289	0	33530	
8290	0	32876	
8291	0	31068	
8292	0	32012	
8293	0	33580	
8294	0	31997	
8295	0	30810	
8296	0	41320	
8297	0	36160	
8298	0	42601	
8299	0	31734	
8300	0	31848	
8301	0	33408	
8302	0	32660	
8303	0	30994	
8304	0	30344	
8305	0	33333	
8306	0	32080	
8307	0	31108	
8308	0	32430	
8309	0	33909	
8310	0	36680	
8311	0	31192	
8312	0	31776	
8313	0	33479	
8314	0	31997	
8315	0	30924	
8316	0	31342	
8317	0	33200	
8318	0	32394	
8319	0	30896	
8320	0	32263	
8321	0	33926	
8322	0	32297	
8323	0	31037	
8324	0	30965	
8325	0	33444	
8326	0	31923	
8327	0	31580	
8328	0	30862	
8329	0	33442	
8330	0	32616	
8331	0	30684	
8332	0	30576	
8333	0	33094	
8334	0	31700	
8335	0	31449	
8336	0	31076	
8337	0	33606	
8338	0	32476	
8339	0	31184	
8340	0	30814	
8341	0	33344	
8342	0	32980	
8343	0	31427	
8344	0	30760	
8345	0	33452	
8346	0	32553	
8347	0	31155	
8348	0	30764	
8349	0	33300	
8350	0	32908	
8351	0	31339	
8352	0	30727	
8353	0	33308	
8354	0	32432	
8355	0	31085	
8356	0	30580	
8357	0	33260	
8358	0	34380	
8359	0	31037	
8360	0	31314	
8361	0	33277	
8362	0	34876	
8363	0	31144	
8364	0	30163	
8365	0	32903	
8366	0	31958	
8367	0	31225	
8368	0	30918	
8369	0	33477	
8370	0	32536	
8371	0	31063	
8372	0	30144	
8373	0	33304	
8374	0	31898	
8375	0	31152	
8376	0	31980	
8377	0	33770	
8378	0	38728	
8379	0	30996	
8380	0	31239	
8381	0	33432	
8382	0	33348	
8383	0	31322	
8384	0	31404	
8385	0	33353	
8386	0	36866	
8387	0	31004	
8388	0	31365	
8389	0	32828	
8390	0	34644	
8391	0	30808	
8392	0	30388	
8393	0	33264	
8394	0	34834	
8395	0	31024	
8396	0	30892	
8397	0	33465	
8398	0	32684	
8399	0	30748	
8400	0	29941	
8401	0	33188	
8402	0	34056	
8403	0	31180	
8404	0	30816	
8405	0	33516	
8406	0	31882	
8407	0	31133	
8408	0	30793	
8409	0	33900	
8410	0	34440	
8411	0	30676	
8412	0	43880	
8413	0	36520	
8414	0	52284	
8415	0	31720	
8416	0	31184	
8417	0	33027	
8418	0	33664	
8419	0	30727	
8420	0	31840	
8421	0	35609	
8422	0	46848	
8423	0	31725	
8424	0	32136	
8425	0	33223	
8426	0	37609	
8427	0	31016	
8428	0	31132	
8429	0	33352	
8430	0	34693	
8431	0	31104	
8432	0	31400	
8433	0	33102	
8434	0	33744	
8435	0	31072	
8436	0	31269	
8437	0	33456	
8438	0	34146	
8439	0	31239	
8440	0	31540	
8441	0	33186	
8442	0	33572	
8443	0	31309	
8444	0	30764	
8445	0	33508	
8446	0	34580	
8447	0	31032	
8448	0	31152	
8449	0	33470	
8450	0	34618	
8451	0	30800	
8452	0	29728	
8453	0	33082	
8454	0	32626	
8455	0	31379	
8456	0	31641	
8457	0	33304	
8458	0	33456	
8459	0	30774	
8460	0	31511	
8461	0	33632	
8462	0	34280	
8463	0	31071	
8464	0	30868	
8465	0	33400	
8466	0	35112	
8467	0	31131	
8468	0	30468	
8469	0	33279	
8470	0	32156	
8471	0	31257	
8472	0	31111	
8473	0	33368	
8474	0	33694	
8475	0	30688	
8476	0	30304	
8477	0	33252	
8478	0	33080	
8479	0	30866	
8480	0	30504	
8481	0	33132	
8482	0	32870	
8483	0	31314	
8484	0	30319	
8485	0	33241	
8486	0	33265	
8487	0	30987	
8488	0	30776	
8489	0	33320	
8490	0	32802	
8491	0	31418	
8492	0	31000	
8493	0	33370	
8494	0	33241	
8495	0	31024	
8496	0	30224	
8497	0	33282	
8498	0	32984	
8499	0	30966	
8500	0	29152	
8501	0	35445	
8502	0	49140	
8503	0	31598	
8504	0	31630	
8505	0	33272	
8506	0	35520	
8507	0	30914	
8508	0	30274	
8509	0	32818	
8510	0	33666	
8511	0	30912	
8512	0	31469	
8513	0	33799	
8514	0	33453	
8515	0	30912	
8516	0	30240	
8517	0	33373	
8518	0	32480	
8519	0	31320	
8520	0	30928	
8521	0	33380	
8522	0	35448	
8523	0	30952	
8524	0	30640	
8525	0	33228	
8526	0	33744	
8527	0	31304	
8528	0	30098	
8529	0	33158	
8530	0	32026	
8531	0	31208	
8532	0	44388	
8533	0	35930	
8534	0	51690	
8535	0	31751	
8536	0	31656	
8537	0	33060	
8538	0	40704	
8539	0	30356	
8540	0	30644	
8541	0	33494	
8542	0	37240	
8543	0	30930	
8544	0	30292	
8545	0	33095	
8546	0	32558	
8547	0	31075	
8548	0	31417	
8549	0	33496	
8550	0	39072	
8551	0	30625	
8552	0	24400	
8553	0	35568	
8554	0	46864	
8555	0	32010	
8556	0	32026	
8557	0	33472	
8558	0	39600	
8559	0	30925	
8560	0	31088	
8561	0	33144	
8562	0	37682	
8563	0	30953	
8564	0	31000	
8565	0	33412	
8566	0	34690	
8567	0	30992	
8568	0	30616	
8569	0	33234	
8570	0	36896	
8571	0	30578	
8572	0	30880	
8573	0	32924	
8574	0	33229	
8575	0	30868	
8576	0	31048	
8577	0	33668	
8578	0	34784	
8579	0	31388	
8580	0	32449	
8581	0	33614	
8582	0	39424	
8583	0	31563	
8584	0	31410	
8585	0	33607	
8586	0	37964	
8587	0	31201	
8588	0	31028	
8589	0	33004	
8590	0	33904	
8591	0	31056	
8592	0	31608	
8593	0	33418	
8594	0	35213	
8595	0	31437	
8596	0	31344	
8597	0	33401	
8598	0	38048	
8599	0	30960	
8600	0	30124	
8601	0	33257	
8602	0	37920	
8603	0	30884	
8604	0	47368	
8605	0	35938	
8606	0	48756	
8607	0	32120	
8608	0	31751	
8609	0	33303	
8610	0	38960	
8611	0	31103	
8612	0	31922	
8613	0	33538	
8614	0	37068	
8615	0	31568	
8616	0	30778	
8617	0	33133	
8618	0	33772	
8619	0	31227	
8620	0	31493	
8621	0	33398	
8622	0	34482	
8623	0	31040	
8624	0	38904	
8625	0	35266	
8626	0	43912	
8627	0	32402	
8628	0	32056	
8629	0	33520	
8630	0	37528	
8631	0	30736	
8632	0	31576	
8633	0	33400	
8634	0	38788	
8635	0	30616	
8636	0	31212	
8637	0	33161	
8638	0	38868	
8639	0	30500	
8640	0	30568	
8641	0	33060	
8642	0	34897	
8643	0	31140	
8644	0	44549	
8645	0	35902	
8646	0	44384	
8647	0	32436	
8648	0	31828	
8649	0	33320	
8650	0	40888	
8651	0	30209	
8652	0	30299	
8653	0	33140	
8654	0	34112	
8655	0	31003	
8656	0	45395	
8657	0	35832	
8658	0	45400	
8659	0	32360	
8660	0	32112	
8661	0	33252	
8662	0	38136	
8663	0	30636	
8664	0	30920	
8665	0	33260	
8666	0	37496	
8667	0	31100	
8668	0	31485	
8669	0	33400	
8670	0	41052	
8671	0	30270	
8672	0	31375	
8673	0	33438	
8674	0	40394	
8675	0	31349	
8676	0	31392	
8677	0	33478	
8678	0	39072	
8679	0	31025	
8680	0	31344	
8681	0	33426	
